Time,ECG_Clean,ECG_Noisy,ECG_Filtered
0.0,0.8,0.7985161004535942,0.7840650680088708
0.001000100010001,0.7967908423502102,0.9590928776264874,0.766464099833321
0.002000200020002,0.7859805825214942,1.0738534487279237,0.7483493489772409
0.003000300030003,0.7678634709338352,1.0516314783316445,0.7283891332132321
0.004000400040004,0.742880371540851,0.9975439640168081,0.705479993281831
0.005000500050005001,0.7116067419312443,0.9332179345146715,0.6788336581904268
0.006000600060006,0.6747369036988627,0.8837562624650822,0.6480287651811677
0.0070007000700070005,0.6330656301999594,0.7133296351903206,0.6130241667922531
0.008000800080008,0.587468094502815,0.589136958456937,0.5741352552609266
0.009000900090009001,0.5388790263578713,0.49853420036649426,0.5319787632354407
0.010001000100010001,0.48827158606046184,0.41269731449694474,0.48739458300783445
0.011001100110011002,0.43663607448581376,0.2695272967357415,0.4413550366791208
0.012001200120012,0.38495827775894437,0.09312455714572034,0.39487267536744586
0.013001300130013,0.33419709737863296,0.049814499734915786,0.3489171497820862
0.014001400140014001,0.28526121090484446,0.05894744408405779,0.30434998500191945
0.015001500150015001,0.23898485567676803,0.06566483316570493,0.26188321476737275
0.016001600160016,0.19610337261725197,0.09991317725930852,0.22206404215414857
0.017001700170017002,0.15722977253277662,0.24483739865465984,0.1852835787752983
0.018001800180018002,0.12283413883278356,0.3926140112401593,0.15180398358161992
0.019001900190019003,0.09322800025026473,0.4548282875455459,0.12179563988544788
0.020002000200020003,0.06855577262984906,0.3367669863679724,0.09537496346703536
0.021002100210021003,0.048794927094887655,0.2888799524726941,0.07263437713432566
0.022002200220022004,0.03376572773242875,0.05231501251640629,0.05365871767289798
0.023002300230023004,0.02315031585302354,0.11808287390672854,0.03852603431353799
0.024002400240024,0.016519782570184736,-0.04481710843846295,0.027294323829524805
0.025002500250025,0.013366872300488506,-0.11667048800778054,0.01997843325548641
0.026002600260026,0.013141279422647728,-0.1013955352540125,0.01652284701629718
0.027002700270027002,0.01528425861178984,-0.11432327026843594,0.016776391419080508
0.028002800280028002,0.01925949892701526,-0.10522571727256752,0.02047418969495412
0.029002900290029002,0.024577854591702867,-0.048557282535258636,0.027230739533928804
0.030003000300030003,0.03081445032646799,0.034911873082877964,0.036546119449999255
0.031003100310031003,0.037617714057495116,-0.023524908482115185,0.04782542644486784
0.032003200320032,0.04471086051108297,-0.000869636919445263,0.060409891370437015
0.033003300330033,0.05188711373031385,0.06950768015769038,0.07361684185197259
0.034003400340034004,0.059000428767946346,0.13048997788162017,0.08678472611616786
0.035003500350035,0.06595363042530926,0.2600277898324953,0.0993186727875841
0.036003600360036005,0.07268576488998604,0.2310458220980974,0.11073162947586263
0.037003700370037,0.0791601334662758,0.24853686333082786,0.1206762677471878
0.038003800380038005,0.08535403926436619,0.24209199749821866,0.1289637531869017
0.039003900390039,0.09125081768649951,0.15765669144506167,0.13556705331723604
0.040004000400040006,0.09683431120663555,0.19630349403988803,0.14060834455755503
0.041004100410041,0.10208563299383872,0.24550918161794222,0.1443318979198966
0.04200420042004201,0.10698185965164586,0.1427703246808658,0.14706533969378566
0.043004300430043,0.1114961953427251,0.06834237259563528,0.14917337835067115
0.04400440044004401,0.11559913752178896,0.12511154128902682,0.15100901779096804
0.045004500450045004,0.11926022138729292,-0.05375665440789568,0.1528678566672615
0.04600460046004601,0.12244999911505934,0.007196031529334519,0.15495108403695113
0.047004700470047005,0.12514199877650453,-0.021958778363313284,0.15734205538249627
0.048004800480048,0.12731449116561208,-0.0636644639779288,0.15999984360829472
0.049004900490049005,0.12895196200301776,0.054393786164241995,0.16277099931395558
0.05000500050005,0.13004623922125222,0.12918477058024963,0.16541812768405376
0.051005100510051006,0.13059726117924006,0.35228771761561833,0.16766112827539564
0.052005200520052,0.13061349470016206,0.4737971685620285,0.16922455581382034
0.05300530053005301,0.13011202542551922,0.40257157467060506,0.16988321662123476
0.054005400540054004,0.12911835050140955,0.3175831988148917,0.16949840243418685
0.05500550055005501,0.12766590767712652,0.22466472049962724,0.1680391551192633
0.056005600560056004,0.12579537723865225,0.271596029647978,0.16558602342220854
0.05700570057005701,0.12355379477528888,0.1405712987642823,0.1623179397849712
0.058005800580058005,0.12099351395810068,0.07193372459872635,0.1584853909756817
0.05900590059005901,0.11817105930001554,0.06973164791029746,0.15437473920407785
0.060006000600060005,0.11514590909711367,-0.0010308690310525254,0.1502693570030061
0.06100610061006101,0.11197924820511884,0.09932042320795469,0.14641317057642592
0.062006200620062006,0.10873272881449365,0.10818332151588445,0.14298135685814126
0.063006300630063,0.10546727486824369,0.010954255508695741,0.14006159836536794
0.064006400640064,0.10224196223311928,0.08142725448764325,0.13764783889090154
0.06500650065006501,0.09911300229255415,-0.001942686999913578,0.13564712054264413
0.066006600660066,0.09613285145610197,0.0033150053011322678,0.13389877821829899
0.067006700670067,0.09334946340309111,0.1566163756270175,0.13220386507980497
0.06800680068006801,0.09080569495251699,0.30165499939232615,0.1303611476297985
0.06900690069006901,0.08853887053737648,0.30416630223951774,0.12820459466438655
0.07000700070007,0.08658050460764156,0.30858900994317057,0.12563652322384364
0.071007100710071,0.08495617611227117,0.28198502848132956,0.12265096082448186
0.07200720072007201,0.08368554469889028,0.16282531620526863,0.11934339453162851
0.07300730073007301,0.08278249455593442,0.16200373237344506,0.11590544589921782
0.074007400740074,0.08225538899253781,0.11570816881702047,0.11260547798756905
0.075007500750075,0.08210741694281261,0.08193663846040213,0.10975818034599394
0.07600760076007601,0.08233701158292586,0.005260685987602633,0.10768754083324411
0.07700770077007701,0.08293832110914058,-0.0566765935590505,0.10668827317248822
0.078007800780078,0.0839017123555054,0.10885431842314897,0.10699075245313516
0.07900790079007901,0.08521428921734399,-0.00951512787864258,0.10873383685346377
0.08000800080008001,0.0868604096595492,-0.01944566202123465,0.11194876012033601
0.081008100810081,0.08882218728648682,0.008437321755382983,0.11655583631230311
0.082008200820082,0.09107996589195338,0.05840227196070902,0.12237420458227834
0.08300830083008301,0.09361275795867248,0.206123041364352,0.12914325802582552
0.08400840084008401,0.09639864061542698,0.25460129072592536,0.13655282504706362
0.085008500850085,0.09941510498141275,0.18233885610441858,0.1442779501943291
0.086008600860086,0.10263935704711194,0.22763509084171535,0.1520136569899418
0.08700870087008701,0.10604857019575037,0.253250211100834,0.1595054634893793
0.08800880088008801,0.10962009111755369,0.18041880435782937,0.1665723813170486
0.089008900890089,0.1133316021892379,0.17733117612039975,0.17312028262474674
0.09000900090009001,0.11716124438042418,0.30833266628829914,0.1791446275321645
0.09100910091009101,0.12108770541942833,0.26976620178321153,0.18472251088303418
0.09200920092009202,0.12509027832799585,0.17942607062947907,0.18999484871956301
0.093009300930093,0.12914889555194473,0.2912038897647801,0.19514043078891147
0.09400940094009401,0.13324414381210445,0.18666129700408088,0.2003445847153536
0.09500950095009501,0.13735726452002825,0.11860598212222247,0.20576619718256597
0.096009600960096,0.14147014418858506,0.029528085971029447,0.21150760321841833
0.09700970097009701,0.1455652987597183,-0.037544358578875545,0.21759215526341003
0.09800980098009801,0.14962585520786473,0.014698085725465704,0.2239538107198912
0.09900990099009901,0.1536355331905781,0.04737126311975502,0.23044156076365266
0.1000100010001,0.1575786289352747,0.25533664166830283,0.23683900385661877
0.10101010101010101,0.1614400029945977,0.42738734189887423,0.24289631752739033
0.10201020102010201,0.16520507298907347,0.5287411250410632,0.24836911082093518
0.10301030103010302,0.16885981199574918,0.43164208377688884,0.25305704425210035
0.104010401040104,0.17239075284202665,0.362394441909873,0.25683527773927745
0.10501050105010501,0.17578499822769247,0.3903383825656218,0.25967366038540785
0.10601060106010601,0.17903023632477288,0.1955991720124029,0.26164134828771307
0.10701070107010702,0.1821147612914491,0.2571927104825081,0.26289728493390285
0.10801080108010801,0.1850274979782247,0.22276928484851313,0.2636690620806658
0.10901090109010901,0.18775802999610347,0.22594017458316318,0.26422386364936906
0.11001100110011001,0.19029663025135057,0.21604045437956448,0.26483555449864327
0.11101110111011102,0.19263429302296095,0.237702727729909,0.2657517685645252
0.11201120112011201,0.19476276666088965,0.258739874006671,0.2671643563189868
0.11301130113011301,0.19667458600948065,0.3064438803848694,0.2691859627703408
0.11401140114011402,0.1983631037059802,0.13099986007259334,0.27183495806270064
0.115011501150115,0.19982251956383285,0.08753158071306956,0.27503049880087205
0.11601160116011601,0.2010479073205918,0.10069969068991264,0.27859901763323186
0.11701170117011701,0.20203523810737145,0.21070614172062388,0.28229254932453834
0.11801180118011802,0.20278140007808357,0.4011522240708475,0.28581773046015824
0.11901190119011901,0.20328421372004524,0.3431324117892426,0.28887229550772714
0.12001200120012001,0.20354244245121667,0.45614364714527245,0.2911841543212115
0.12101210121012101,0.20355579819201292,0.37475386894913615,0.292547362100804
0.12201220122012202,0.20332494168034862,0.4763021977020339,0.2928496782135623
0.12301230123012301,0.20285147737657838,0.37094028288673764,0.29208768999636453
0.12401240124012401,0.2021379428797431,0.41501758170100916,0.29036726545658137
0.125012501250125,0.2011877928476146,0.4085047183653727,0.28788910722258637
0.126012601260126,0.20000537748012392,0.2867393937476789,0.28492122256482716
0.127012701270127,0.19859591568862725,0.20937649054092816,0.28176205535425164
0.128012801280128,0.19696546313188157,0.08573894229637422,0.27869965622627435
0.12901290129012902,0.19512087535340444,0.06643110763841076,0.2759732728774192
0.13001300130013002,0.19306976630390824,0.0005169425916281278,0.27374372816186826
0.13101310131013102,0.1908204625765822,0.07398528133035408,0.27207768425560525
0.132013201320132,0.1883819537220206,0.10935667227121773,0.2709484552471397
0.133013301330133,0.1857638390434403,0.3780590560456926,0.2702528261579538
0.134013401340134,0.18297627130141564,0.488085289827086,0.26984000360974925
0.135013501350135,0.18002989778061007,0.5472460410249652,0.2695461859697979
0.13601360136013602,0.17693579918887936,0.5746869480002096,0.269227121875172
0.13701370137013702,0.17370542687166346,0.3233684562328515,0.2687818726341442
0.13801380138013802,0.17035053883182025,0.32032652279111334,0.2681635579174342
0.13901390139013903,0.16688313504707766,0.21193419596230353,0.267376249290805
0.14001400140014,0.16331539257422711,0.25703427967972986,0.26646027748191586
0.141014101410141,0.15965960092123188,0.10405745319844646,0.2654702748388903
0.142014201420142,0.1559280981558126,0.1172847892894201,0.2644511108430244
0.14301430143014301,0.15213320820205978,0.16196646339295057,0.2634166815831716
0.14401440144014402,0.14828717975554154,0.22886376872429048,0.26233550430798264
0.14501450145014502,0.14440212722254972,0.24058231492263088,0.26112549332491913
0.14601460146014603,0.1404899740609686,0.18207061556590448,0.2596585513754398
0.147014701470147,0.13656239886914562,0.2678175683449566,0.25777411516469323
0.148014801480148,0.13263078453554397,0.27649801111673394,0.25529971256123546
0.149014901490149,0.12870617072630278,0.21093394414125166,0.2520758477248011
0.15001500150015,0.12479920995058223,0.2569337954742779,0.24798203471027044
0.15101510151015102,0.12092012740520115,0.3141858377371177,0.24296051413257966
0.15201520152015202,0.117078684761033,0.5133688861675344,0.23703408815530566
0.15301530153015303,0.11328414801437825,0.4656556296725437,0.23031469645617372
0.15401540154015403,0.10954525948750944,0.2664516833756987,0.223000171296954
0.155015501550155,0.10587021402421506,0.1372170772518394,0.2153583514507958
0.156015601560156,0.10226663938884523,0.24134155655952888,0.20770014000559697
0.157015701570157,0.09874158084145773,0.09862413069643959,0.2003453216442001
0.15801580158015802,0.09530148982750641,0.08439298274617656,0.1935862640459209
0.15901590159015902,0.09195221668841752,0.04473185405194335,0.18765487806431888
0.16001600160016002,0.08869900726961692,0.02483207437706602,0.1826976469557562
0.16101610161016103,0.08554650327533037,0.06707987057703564,0.1787623457065277
0.162016201620162,0.08249874619496178,0.1281347068143045,0.1757983625621838
0.163016301630163,0.0795591846042002,0.17579965256984,0.17367051592964397
0.164016401640164,0.07673068462531732,0.1339399504836451,0.1721842812099884
0.16501650165016502,0.07401554331544513,0.09702843519049652,0.1711187447324153
0.16601660166016602,0.07141550473899586,0.33285195260507816,0.17026252220616872
0.16701670167016702,0.06893177847077535,0.41980994373896185,0.16944724869972697
0.16801680168016803,0.06656506026969614,0.4870020144744808,0.1685731032128684
0.16901690169016903,0.06431555465922718,0.34117601637505246,0.16762154931258616
0.17001700170017,0.06218299914970713,0.20923601449955972,0.16665245167256743
0.171017101710171,0.06016668983924855,0.133891888762781,0.1657857935529446
0.172017201720172,0.0582655081340056,-0.011664620675178074,0.16517150982905868
0.17301730173017302,0.056477948334876404,-0.04150633443486085,0.16495342090257709
0.17401740174017402,0.05480214584606047,0.020572087554227944,0.16523424191889313
0.17501750175017503,0.05323590577107243,-0.044414776083569585,0.16604804219662125
0.17601760176017603,0.05177673167359958,0.11673525878462532,0.1673446737542926
0.177017701770177,0.0504218542937521,0.14423314951047547,0.16898814772624512
0.178017801780178,0.04916826002455677,0.3060134121357339,0.1707683350686602
0.179017901790179,0.04801271896875637,0.26925455433407863,0.1724232656019954
0.18001800180018002,0.04695181241186898,0.1501463799443276,0.17366812817283142
0.18101810181018102,0.04598195956381614,0.16951324357689654,0.17422696239287067
0.18201820182018202,0.045099443438033154,0.13451986031232904,0.17386365011398114
0.18301830183018303,0.04430043575363023,0.2371039627739861,0.17240955067975242
0.18401840184018403,0.04358102076269558,0.2441004358908059,0.16978554826863954
0.185018501850185,0.04293721792104932,0.22933279336092072,0.16601643450666856
0.186018601860186,0.04236500333651577,0.27069655349263705,0.16123578000265584
0.18701870187018702,0.041860329943946006,0.260765150115968,0.15568003339852718
0.18801880188018802,0.04141914637067076,0.2437853881088848,0.14967157301632136
0.18901890189018902,0.04103741446969761,0.09994540138000715,0.14359172494254213
0.19001900190019003,0.04071112551069787,0.06990800062515475,0.1378461800577749
0.19101910191019103,0.04043631503059662,0.040146563824387055,0.13282649642562006
0.192019201920192,0.040209076356331044,0.1110632507805799,0.12887208783851498
0.193019301930193,0.04002557282204697,-0.00014890304635383628,0.12623706221859513
0.19401940194019401,0.03988204871164419,0.07505594020172623,0.12506560124973246
0.19501950195019502,0.03977483896515349,-0.01175252201900473,0.12537855226250286
0.19601960196019602,0.03970037769394492,0.07849269244308026,0.12707272164696923
0.19701970197019703,0.03965520555524851,0.09954024465592229,0.1299330561328641
0.19801980198019803,0.03963597604094893,0.0676784962237483,0.13365652078982876
0.19901990199019903,0.03963946073913712,0.11222282264790798,0.13788516585489552
0.2000200020002,0.03966255362951488,0.2511472332155056,0.1422447616799573
0.201020102010201,0.03970227447550885,0.25998908675129756,0.14638456098338534
0.20202020202020202,0.039755771376921316,0.4066454627679779,0.15001335512734884
0.20302030203020302,0.039820322547191506,0.2258239433963174,0.15292728548488677
0.20402040204020402,0.039893337378932206,0.2218026015923536,0.15502605445540632
0.20502050205020503,0.03997235686041041,0.09669929623790827,0.15631610476887223
0.20602060206020603,0.04005505340413124,0.14870080419762458,0.15690144855027446
0.20702070207020704,0.04013923014672696,0.12744286757123452,0.1569644801927175
0.208020802080208,0.04022281977701961,0.06810682703923249,0.1567399547289738
0.20902090209020902,0.040303882946480865,0.19998529462992176,0.15648543162558526
0.21002100210021002,0.040380606313419706,0.16564744959383912,0.15645116082708574
0.21102110211021102,0.04045130026914767,0.17047372750507486,0.15685191782815353
0.21202120212021203,0.04051439639115868,0.06760980303939106,0.1578429192814553
0.21302130213021303,0.04056844466506701,0.1331486009758149,0.1595017740695242
0.21402140214021403,0.040612110513721426,9.804323214430977e-05,0.1618183091328473
0.215021502150215,0.04064417166859641,0.07121671856930031,0.16469377006680086
0.21602160216021601,0.040663514915293436,0.049839280028919214,0.167950124140987
0.21702170217021702,0.040669132741796704,0.2086971703291121,0.1713489621533427
0.21802180218021802,0.040660119915049836,0.3006814699411696,0.1746179826956796
0.21902190219021903,0.04063567000847419,0.2799488359805995,0.17748164751444712
0.22002200220022003,0.04059507190025774,0.27580236504828104,0.17969183155235266
0.22102210221022103,0.0405377062596193,0.20229138567289368,0.1810544716855359
0.22202220222022204,0.04046304203580888,0.20304335794063,0.1814492119620171
0.223022302230223,0.04037063296234886,0.16579634631565232,0.1808403647925486
0.22402240224022402,0.04026011408695659,0.2725948041808301,0.17927867149747373
0.22502250225022502,0.04013119833571941,0.20904542690386912,0.1768941467690264
0.22602260226022602,0.03998367311841558,0.27164416992541107,0.1738808405992766
0.22702270227022703,0.039817396980386624,0.1504803071195005,0.1704749032708987
0.22802280228022803,0.03963229630506248,0.16821330262006515,0.16692804863723693
0.22902290229022904,0.03942836207011249,0.10324379874691342,0.1634792967366636
0.23002300230023,0.03920564665923488,0.033586341074692064,0.16032849081096565
0.23102310231023102,0.03896426073079442,0.012872264647337778,0.15761527409264903
0.23202320232023202,0.03870437014386144,-0.04205319348659718,0.15540680829478784
0.23302330233023302,0.03842619294168481,0.07933325783703657,0.15369643278672976
0.23402340234023403,0.038129996392233356,0.1419037685079618,0.15241374368999874
0.23502350235023503,0.037816094085153906,0.2115361681931584,0.15144449050700518
0.23602360236023603,0.03748484308430708,0.3102687310830337,0.15065675640125792
0.23702370237023704,0.037136641134940904,0.28275226481844823,0.14992866311041336
0.23802380238023801,0.036771923924538284,0.28181078211721333,0.14917266735914683
0.23902390239023902,0.03639116239641263,0.15086898135539523,0.14835239345569534
0.24002400240024002,0.03599486011521894,0.2469781837697026,0.1474895504995698
0.24102410241024103,0.035583550683682325,0.140062134899252,0.14666030203512406
0.24202420242024203,0.035157795210015386,0.1510958062352799,0.14598204793294164
0.24302430243024303,0.034718179825688374,0.18550429156539627,0.14559275417972978
0.24402440244024404,0.034265313253426466,0.044673215091124596,0.1456257468367507
0.245024502450245,0.03379982442552669,0.13913280840897618,0.1461833381142181
0.24602460246024602,0.03332236015280823,0.14013064243272208,0.14731279987166288
0.24702470247024702,0.032833582844727774,0.05004553020389426,0.14898804979353256
0.24802480248024802,0.0323341682813999,-0.04161542165293744,0.15110001188118807
0.24902490249024903,0.03182480343845893,-0.054575964771813326,0.15345796957456442
0.25002500250025,0.03130618436587793,0.02916499604707401,0.15580318364313467
0.251025102510251,0.0307790141220196,0.22942781592894224,0.15783437001262532
0.252025202520252,0.03024400076433136,0.2799524136872975,0.1592424341895278
0.253025302530253,0.0297018553982102,0.248207023691669,0.15974976872678867
0.254025402540254,0.02915329028565057,0.2812635575283436,0.1591482207239995
0.255025502550255,0.02859901701535077,0.35910511238511195,0.15732989275522796
0.256025602560256,0.02803974473598858,0.26738022569320496,0.15430605351636134
0.25702570257025703,0.027476178454386043,0.2794061770787538,0.15021120262147483
0.25802580258025803,0.026909017400266827,0.14289919716553745,0.14529146324748124
0.25902590259025904,0.026338953459267546,0.21070132556381427,0.13987871287407297
0.26002600260026004,0.025766669675798933,0.034051724175083425,0.13435387954854183
0.26102610261026105,0.02519283882726402,0.04792674775556602,0.12910432674002184
0.26202620262026205,0.024618122071031052,-0.06963359994425077,0.12448104668932934
0.26302630263026305,0.02404316766542945,0.014014349604880696,0.1207613820234917
0.264026402640264,0.023468609765890307,-0.04586477668466628,0.11812215376236818
0.265026502650265,0.022895067297190024,-0.05312292091323278,0.1166264814981846
0.266026602660266,0.022323142902579543,0.12202348427397287,0.11622548627740056
0.267026702670267,0.02175342197039227,0.15747058550034998,0.1167737835680577
0.268026802680268,0.021186471738526648,0.26514934707596965,0.11805556463383643
0.269026902690269,0.020622840476992654,0.24367118001322252,0.11981657759129741
0.27002700270027,0.020063056748499945,0.2070707477356554,0.12179684808635029
0.27102710271027103,0.01950762874685,0.19471187929720138,0.1237595931939802
0.27202720272027203,0.018957043712677032,0.08158461818413688,0.12551314848433429
0.27302730273027304,0.0184117674258651,0.24224630670406455,0.12692431417941993
0.27402740274027404,0.017872243773753183,0.12217773988082122,0.12792288955165362
0.27502750275027504,0.01733889439402739,0.10717547274164281,0.128498146120382
0.27602760276027605,0.016812118390992305,0.13185996120483776,0.12868867480601204
0.27702770277027705,0.016292292123712162,0.11495497151221701,0.12856752860250578
0.27802780278027805,0.01577976906431911,0.15541475795265414,0.1282248607309917
0.279027902790279,0.015274879724601537,0.0874250326571965,0.12775033010254244
0.28002800280028,0.014777931648810298,0.0740415616259559,0.1272175049821009
0.281028102810281,0.01428920947045799,-0.037769135058517485,0.12667239848899406
0.282028202820282,0.013808975030733346,0.047308192749480976,0.1261280043840828
0.283028302830283,0.013337467556014402,0.009674926123626935,0.12556605252396408
0.284028402840284,0.012874903891837411,0.23286536402086153,0.12494606427980626
0.285028502850285,0.0124214787905655,0.14523382397526952,0.12422034888322814
0.28602860286028603,0.011977365249902637,0.17311847757191615,0.12335229980904017
0.28702870287028703,0.011542714899313211,0.14880977190645267,0.12233466659416654
0.28802880288028804,0.011117658431337614,0.16445905291023327,0.12120449786393357
0.28902890289028904,0.010702306074737454,0.2410340409322877,0.12005193588627633
0.29002900290029004,0.010296748106362719,0.19732907695308405,0.11902071865131016
0.29102910291029105,0.009901055398604721,0.23955351006440445,0.1182990585036186
0.29202920292029205,0.009515279999285194,0.2311284578668323,0.11810061921177128
0.29302930293029306,0.009139455740830832,0.17393406490152266,0.11863666206715706
0.294029402940294,0.00877359887559559,0.17391774444794444,0.12008200016204437
0.295029502950295,0.008417708734217632,0.0034929739055244297,0.12253901020644647
0.296029602960296,0.008071768403935862,-0.12314993396281929,0.12600533349544188
0.297029702970297,0.007735745423838633,-0.20227119333730814,0.13035165651091482
0.298029802980298,0.007409592494077794,-0.17489415688911672,0.13531560253933284
0.299029902990299,0.007093248196150326,-0.04574487258723485,0.14051590533920622
0.3000300030003,0.006786637721429388,0.08838978634596131,0.14548773378064284
0.30103010301030103,0.006489673605214296,0.19855100044389037,0.1497359445545423
0.30203020302030203,0.006202256463665081,0.37254321304005794,0.1527991715728801
0.30303030303030304,0.005924275731090172,0.5464050950770987,0.15431496757186072
0.30403040304030404,0.005655610395165414,0.3827035303968197,0.1540753200816242
0.30503050305030505,0.0053961297277775625,0.4916505119430613,0.1520630083888511
0.30603060306030605,0.005145694009305474,0.284281203017806,0.14846224739592404
0.30703070307030705,0.004904155244276024,0.3173661352328164,0.14364121896561646
0.30803080308030806,0.004671357866459127,0.101984221322221,0.13810854267802083
0.309030903090309,0.004447139431595792,-0.010274217757924468,0.13244972073431865
0.31003100310031,0.00423133129608474,-0.13574666457116089,0.12725254940261177
0.311031103110311,0.004023759280085708,-0.06080119707213281,0.12303199364750272
0.312031203120312,0.003824244313630118,-0.07051250331746345,0.12016482245718768
0.313031303130313,0.003632603064462749,-0.02752419642020547,0.11884253339606442
0.314031403140314,0.0034486485464695626,-0.1280379436608633,0.11904830945143832
0.31503150315031503,0.0032721907076768276,-0.09339072262916961,0.12056059378336256
0.31603160316031603,0.0031030369969350362,0.022430271359051047,0.12298268221706482
0.31703170317031704,0.0029409929085262784,0.26703291796339257,0.12579456718901275
0.31803180318031804,0.0027858625040564234,0.3228316077171156,0.1284202804588183
0.31903190319031904,0.0026374489111120865,0.31458860441954845,0.13030174019254082
0.32003200320032005,0.002495554798277596,0.2483539879493623,0.1309693065432241
0.32103210321032105,0.0023599828262176967,0.2781373922269876,0.1301001110661155
0.32203220322032206,0.002230536074638067,0.3954375730287245,0.12755728832313326
0.32303230323032306,0.002107018445036879,0.27704473253604234,0.1234058158261041
0.324032403240324,0.001989235039257014,0.22953025103304325,0.1179034021200641
0.325032503250325,0.0018769925139393653,0.1294941224506484,0.11146771747879285
0.326032603260326,0.0017700994110633828,0.1366206038752787,0.10462410959527584
0.327032703270327,0.001668366464840793,0.0010319597858393001,0.09794040772330022
0.328032803280328,0.0015716068853029932,-0.09918134417554318,0.09195711562313585
0.329032903290329,0.00147963661899126,-0.21006592949263775,0.08712203044192814
0.33003300330033003,0.0013922745872219132,-0.1942070084984075,0.0837379638326134
0.33103310331033103,0.0013093429024560353,-0.13343183813807108,0.08193062610461815
0.33203320332033204,0.00123066706335502,-0.016511813910283862,0.0816408864098047
0.33303330333033304,0.0011560761291495478,-0.08373250274936841,0.08264195734153283
0.33403340334033405,0.0010854028739902962,0.16569551937810356,0.08457827357821368
0.33503350335033505,0.0010184839219842547,0.38259382070047915,0.08701960386749628
0.33603360336033605,0.0009551598636507813,0.3412778658641822,0.08952174883249536
0.33703370337033706,0.000895275354556915,0.2732538169341441,0.09168448432330965
0.33803380338033806,0.0008386791969119139,0.23759401705057187,0.09319850050473116
0.339033903390339,0.0007852244049169386,0.19197687587274906,0.09387568221659973
0.34003400340034,0.0007347682546771929,0.16291120086978303,0.09366032491043152
0.341034103410341,0.0006871723194912473,0.067001828640495,0.0926219246354708
0.342034203420342,0.0006423024913354162,0.04816993666572365,0.09093257779553834
0.343034303430343,0.0006000289893608305,-0.018747736736846904,0.08883365186381703
0.344034403440344,0.0005602263562168298,-0.04034330842318269,0.0865971970862072
0.34503450345034503,0.0005227734430072078,0.07285783062052889,0.08448755195327778
0.34603460346034604,0.00048755338367571175,-0.022358905624681395,0.08272785981160277
0.34703470347034704,0.00045445355960429466,0.03834641462161348,0.08147502631920492
0.34803480348034804,0.0004233655551922208,-0.0399801050251091,0.08080533042384343
0.34903490349034905,0.00039418510516645944,-0.040899211150011536,0.08071163770023285
0.35003500350035005,0.00036681203435412284,0.05613820106470002,0.08111191550290289
0.35103510351035105,0.0003411501906261845,0.18418443322982608,0.08186741185427801
0.35203520352035206,0.000317107371698672,0.216066992675262,0.08280752432472814
0.35303530353035306,0.0002945952464530868,0.1278206214026739,0.08375742768827749
0.354035403540354,0.0002735292714122791,0.11232929690949182,0.08456436377535857
0.355035503550355,0.0002538286029814668,0.18238390932159435,0.08511916929664812
0.356035603560356,0.00023541600603689232,0.09853025973982071,0.08537073971846679
0.357035703570357,0.000218217759416751,0.08334822496471639,0.08533226065343104
0.358035803580358,0.00020216355884089491,0.11260194826553495,0.08507899587651425
0.35903590359035903,0.00018718641775735794,0.1512373146839605,0.08473818221904647
0.36003600360036003,0.00017322256658528265,0.13662656088395778,0.08447215729333214
0.36103610361036104,0.00016021135079540835,0.15060630891161622,0.0844563308478305
0.36203620362036204,0.0001480951282410817,0.031992486182975816,0.08485417169671541
0.36303630363036304,0.00013681916612484792,0.04306396070085297,0.08579207304711925
0.36403640364036405,0.00012633153795824252,-0.10100320017802569,0.0873375971470287
0.36503650365036505,0.00011658302084547384,-0.13848677044492325,0.08948484278431686
0.36603660366036606,0.00010752699339539799,-0.11791505191376055,0.09215018122039885
0.36703670367036706,9.911933454058653e-05,0.016333443903947018,0.09518015925015379
0.36803680368036806,9.131832351746536e-05,0.2470627592365103,0.09837105838455923
0.369036903690369,8.408454123750741e-05,0.27468012180862583,0.10149696114727046
0.37003700370037,7.738077325635368e-05,0.2937128138470634,0.10434111158828518
0.371037103710371,7.117191452554935e-05,0.204747193280995,0.10672468075037088
0.372037203720372,6.542487609034517e-05,0.18140397178953827,0.10852795318167117
0.373037303730373,6.010849387677594e-05,0.15002233680747445,0.10970091650573104
0.37403740374037403,5.519343969198529e-05,0.1596387519072277,0.11026245317611738
0.37503750375037503,5.065213454353334e-05,0.14483807286864725,0.1102892190035542
0.37603760376037604,4.645866436622294e-05,0.044920670447530585,0.10989667338985952
0.37703770377037704,4.2588698228790317e-05,0.0006405217403505602,0.1092156629323269
0.37803780378037805,3.9019409077638565e-05,0.07273586916820807,0.10836847509300675
0.37903790379037905,3.572939706062377e-05,-0.03261148848425942,0.10744827146858073
0.38003800380038005,3.269861546072787e-05,-0.0068876808059990455,0.10650521681750026
0.38103810381038106,2.9908299257243554e-05,-0.0011048966381980718,0.10554153234154634
0.38203820382038206,2.7340896320841745e-05,0.03287757276613455,0.10451627388149883
0.38303830383038306,2.4980001238550432e-05,0.11466224772127578,0.1033589995123142
0.384038403840384,2.281029175523345e-05,0.24625615554184724,0.10198983975723182
0.385038503850385,2.08174678095739e-05,0.29011513127827304,0.10034215500475048
0.386038603860386,1.898819313482001e-05,0.16400354324270405,0.09838337688707816
0.387038703870387,1.7310039387589245e-05,0.20450615770027936,0.09613006967251757
0.38803880388038803,1.577143276183611e-05,0.13698581849169272,0.09365461866919877
0.38903890389038903,1.4361603039613232e-05,-0.010469802140554471,0.0910827659832536
0.39003900390039004,1.307053502546876e-05,0.06925531087011248,0.08858288301438676
0.39103910391039104,1.1888922307186072e-05,0.09684938471409467,0.08634898345606455
0.39203920392039204,1.0808123282042322e-05,0.14547071184936913,0.08457990343576963
0.39303930393039305,9.82011938480945e-06,0.07251587825124435,0.08345699466830873
0.39403940394039405,8.917475451301172e-06,0.056195972151927585,0.08312250034681583
0.39503950395039505,8.093302149351278e-06,0.04118540031135564,0.08366079062413442
0.39603960396039606,7.341220407651126e-06,-0.011769081891017854,0.08508474720213961
0.39703970397039706,6.6553277718456155e-06,-0.10611133740707131,0.08732952274027536
0.39803980398039807,6.030166616651991e-06,-0.052965539338169665,0.09025541368172349
0.39903990399039907,5.460694142490754e-06,0.03755484208063087,0.0936605256660388
0.4000400040004,4.942254085170778e-06,0.2088825987625587,0.09730228125422079
0.401040104010401,4.470550067521723e-06,0.24647892435745916,0.1009249428166698
0.402040204020402,4.041620522485208e-06,0.22006050946984662,0.10428885258594289
0.40304030403040303,3.651815118033869e-06,0.24735229926702595,0.10719665134781164
0.40404040404040403,3.297772615359215e-06,0.1714088829649842,0.10951248906580383
0.40504050405040504,2.976400093027095e-06,0.06693568289022817,0.11117182259637681
0.40604060406040604,2.6848534712222888e-06,0.14417771923380962,0.11218121503230959
0.40704070407040704,2.4205192717670024e-06,0.14602702032723586,0.11260909009953904
0.40804080408040805,2.18099755128152e-06,0.06822774023869069,0.11256939016725452
0.40904090409040905,1.964085946639261e-06,0.06373223493232556,0.11220058527478813
0.41004100410041006,1.7677647737343317e-06,0.16195606337734256,0.11164267680987248
0.41104110411041106,1.590183122511276e-06,0.08485168170728909,0.11101484361612643
0.41204120412041206,1.4296458931872493e-06,0.06749423131032996,0.11039623648775268
0.41304130413041307,1.28460172061326e-06,-0.0351708521880897,0.10981222386046871
0.41404140414041407,1.1536317357593723e-06,0.018997184508993098,0.1092281287244202
0.415041504150415,1.035439115357656e-06,0.01337432013481852,0.1085519796931614
0.416041604160416,9.288393727847426e-07,0.024779131797627356,0.1076468273396422
0.417041704170417,8.327513453043215e-07,0.0907269538495622,0.10635179349978219
0.41804180418041803,7.4618883480908e-07,0.13344404012970199,0.10450949412099594
0.41904190419041903,6.682528611950433e-07,0.24719853723361182,0.10199612400173415
0.42004200420042004,5.981244894609779e-07,0.2001375345398405,0.09874960554962646
0.42104210421042104,5.350581935467742e-07,0.25353406823945207,0.09479103436006389
0.42204220422042205,4.783757218015733e-07,0.20483856583470994,0.09023532471938354
0.42304230423042305,4.2746043080123765e-07,0.22270377115188197,0.08528837004578856
0.42404240424042405,3.8175205601143244e-07,0.24263707691921568,0.08022992686339459
0.42504250425042506,3.407418895146034e-07,0.06358197131643667,0.07538354718774012
0.42604260426042606,3.039683366837791e-07,0.022652591093655996,0.07107702753131351
0.42704270427042706,2.7101282529193183e-07,-0.1320530367371731,0.06759876384090832
0.42804280428042807,2.4149604209100186e-07,-0.16480773535036392,0.06515668608018002
0.4290429042904291,2.1507447337902989e-07,-0.07852285651843255,0.06384663479497155
0.43004300430043,1.9143722749654673e-07,-0.24566865416947967,0.06363591607136027
0.431043104310431,1.7030311855450026e-07,-0.05931352299990878,0.06436549806300937
0.43204320432043203,1.514179919957533e-07,0.02887445825845018,0.06577131368186136
0.43304330433043303,1.3455227383112086e-07,0.20083023870356953,0.06752190493306055
0.43404340434043404,1.1949872656992717e-07,0.18515638644076782,0.06926675866478359
0.43504350435043504,1.0607039598511296e-07,0.2321733304610404,0.07068778614174376
0.43604360436043604,9.409873391527139e-08,0.2896860430594058,0.07154592413892298
0.43704370437043705,8.343188331206422e-08,0.31434709927679305,0.07171575539494417
0.43804380438043805,7.39331126927873e-08,0.1715893725250264,0.0712030207522885
0.43904390439043905,6.547938805607153e-08,0.16664420528407065,0.07014255600983776
0.44004400440044006,5.796007116556921e-08,0.05921723516790492,0.06877715413110982
0.44104410441044106,5.127573390382054e-08,0.0383772005940144,0.06742064281790071
0.44204420442044207,4.5337079148162473e-08,0.0165889937842532,0.06641060710890144
0.44304430443044307,4.006395932447879e-08,-0.06413833815385026,0.06605743212118056
0.4440444044404441,3.538448445468162e-08,-0.12141072515724247,0.06659669483925618
0.445044504450445,3.123421213203676e-08,-0.07885900663407029,0.06815148579638548
0.446044604460446,2.755541243670216e-08,-0.16048054202554982,0.07071004326040674
0.44704470447044703,2.4296401344078018e-08,-0.08763578458216667,0.07412217845338596
0.44804480448044803,2.141093668263801e-08,-0.026266830105127495,0.07811549282111878
0.44904490449044904,1.885767116771424e-08,0.06648259741144202,0.08232958480706258
0.45004500450045004,1.6599657475037964e-08,0.26847819636852144,0.08636367386660497
0.45104510451045104,1.4603900724484706e-08,0.20226179847408562,0.08983081591685327
0.45204520452045205,1.2840954122161966e-08,0.36307416602157006,0.09241066354046971
0.45304530453045305,1.1284553859375355e-08,0.34684426074018737,0.09389287244042634
0.45404540454045406,9.911289691739195e-09,0.2558116270718956,0.09420477827569086
0.45504550455045506,8.700307922308524e-09,0.20456330270183962,0.09341958038805874
0.45604560456045606,7.633043790601685e-09,0.07071350438679516,0.09174449089253268
0.45704570457045707,6.692980526182928e-09,-0.07162080603592572,0.0894915046900498
0.45804580458045807,5.865432562456524e-09,-0.014239507875666454,0.08703593580864202
0.4590459045904591,5.1373506247888394e-09,-0.03175274950268041,0.08476913527108637
0.46004600460046,4.497146608269639e-09,0.02522684834604296,0.08305172285917306
0.461046104610461,3.9345363455237e-09,0.04638950053660295,0.08217254744575894
0.46204620462046203,3.44039853511196e-09,0.06608907063366606,0.0823170274585653
0.46304630463046303,3.0066482572720376e-09,0.11234589364170358,0.08354704809851056
0.46404640464046404,2.6261236470424475e-09,0.01214815198144647,0.08579348786463675
0.46504650465046504,2.2924844261349237e-09,-0.09242534182540214,0.08886174312691625
0.46604660466046605,2.000121115150037e-09,-0.01210108895480186,0.09245011373740683
0.46704670467046705,1.744073857706073e-09,-0.031193632724232645,0.0961802226070198
0.46804680468046805,1.5199598885521964e-09,0.16030047680462714,0.09963744997052351
0.46904690469046906,1.3239087694926011e-09,0.17083824826196542,0.10241773868101095
0.47004700470047006,1.152504600645992e-09,0.2926947717508456,0.1041755689210442
0.47104710471047107,1.0027344908401856e-09,0.18824670399613908,0.104667024809097
0.47204720472047207,8.719426403916403e-10,0.21355274349245038,0.10378204083355348
0.4730473047304731,7.577894526979628e-10,0.35631448879851924,0.10156105985120202
0.4740474047404741,6.58215148493919e-10,0.28803099548068045,0.09819312377741851
0.475047504750475,5.714074087653367e-10,0.2514359921404737,0.09399460013121187
0.47604760476047603,4.957726196258826e-10,0.054991713920655605,0.08937028122391828
0.47704770477047703,4.299103353484784e-10,-0.009047707351303707,0.08476135405376926
0.47804780478047804,3.725906145868723e-10,-0.07306720514125227,0.08058723223221537
0.47904790479047904,3.2273391997453625e-10,-0.16796067729776537,0.07718977997957166
0.48004800480048004,2.7939330307116406e-10,-0.25268574826465107,0.07478858985688644
0.48104810481048105,2.4173862534052737e-10,-0.27636506665275606,0.07345462997406701
0.48204820482048205,2.0904259176149933e-10,-0.09713105855052499,0.07310689157527894
0.48304830483048306,1.8066839704991221e-10,0.03689222057972173,0.07353290283004629
0.48404840484048406,1.5605880553352558e-10,0.2686272842247937,0.07442968072357811
0.48504850485048506,1.3472650468967262e-10,0.29010196857859205,0.07545781351950212
0.48604860486048607,1.1624558941886721e-10,0.38828171101940895,0.07629894174338304
0.48704870487048707,1.0024404946715626e-10,0.3453730212736265,0.07670657425785658
0.4880488048804881,8.639714618770313e-11,0.24335747189433246,0.0765419093552653
0.4890489048904891,7.442157719742754e-11,0.19317249795815658,0.0757895488040956
0.49004900490049,6.407033857304814e-11,0.15870397857359764,0.0745518571673681
0.49104910491049103,5.5128204166748747e-11,-0.06543967753862562,0.07302441413617883
0.49204920492049203,4.74077505173771e-11,-0.05739159508140383,0.07145793076011225
0.49304930493049304,4.074586379137659e-11,-0.1292609409856228,0.07011377766258883
0.49404940494049404,3.5000672301660034e-11,-0.0867267183149363,0.06922069390659075
0.49504950495049505,3.0048854506815946e-11,-0.006808629838829829,0.06893932329880159
0.49604960496049605,2.5783278064347332e-11,-0.04347651576308213,0.06933930729718805
0.49704970497049705,2.211093056926555e-11,-0.018297847031890357,0.0703913217073782
0.49804980498049806,1.8951107116443503e-11,-0.04344281193994478,0.07197417795216063
0.49904990499049906,1.6233823838325144e-11,0.1009048579396811,0.07389513221173538
0.5000500050005,1.3898430140385557e-11,0.18183314132019765,0.0759198522942828
0.5010501050105011,1.1892395531398167e-11,0.3545832343752654,0.0778071508188837
0.502050205020502,1.0170249765948756e-11,0.08476054743983022,0.07934292716871288
0.5030503050305031,8.692657520306112e-12,0.2520213393884684,0.08036814090825775
0.504050405040504,7.425611043675867e-12,0.1699627036899316,0.0807970655614921
0.5050505050505051,6.339726195400694e-12,0.03830334614393383,0.08062407157429857
0.506050605060506,5.409629022259576e-12,0.048743114154576196,0.07991917774024389
0.5070507050705071,4.613421573163116e-12,0.02529743560270463,0.07881419631181825
0.508050805080508,3.932217013297724e-12,0.07193017886381436,0.0774822473068989
0.5090509050905091,3.3497353058423495e-12,0.07082066806892767,0.07611366812033042
0.51005100510051,2.8519517944465024e-12,0.10768835667636581,0.07489109552318057
0.5110511051105111,2.4267919594890455e-12,0.04436715791708488,0.07396610672832135
0.512051205120512,2.0638664498706393e-12,0.03853577558627638,0.07343953649701948
0.513051305130513,1.754241222303897e-12,-0.023708072353796027,0.07334746790069854
0.5140514051405141,1.49023826301493e-12,-0.04837923489563177,0.07365475496924594
0.515051505150515,1.2652629324593256e-12,-0.12880700662521888,0.0742575246492985
0.5160516051605161,1.0736544710144058e-12,0.021725855846292903,0.07499521288870746
0.517051705170517,9.105566405737563e-13,0.17795400498723474,0.07567125192973323
0.5180518051805181,7.718058605916508e-13,0.2038217394067481,0.07607976951372343
0.519051905190519,6.538345336793717e-13,0.21398665573773187,0.07603416651007812
0.5200520052005201,5.535875508992427e-13,0.23089129074340894,0.07539287090591719
0.521052105210521,4.684502253744244e-13,0.1468505415115939,0.0740781985981684
0.5220522052205221,3.961861291011758e-13,0.05301333536190905,0.07208581308299905
0.523052305230523,3.348835057891086e-13,-0.0027593965147840807,0.06948419402047243
0.5240524052405241,2.829091055852048e-13,0.09960750930498793,0.06640520789471781
0.525052505250525,2.388684386889301e-13,0.08248507861070828,0.06302791078946546
0.5260526052605261,2.0157157680900227e-13,-0.0034384341913929178,0.0595580572440441
0.527052705270527,1.7000374650931385e-13,0.02838734795224922,0.05620573510602846
0.528052805280528,1.4330005882045834e-13,0.0337888167671911,0.053163388402907415
0.5290529052905291,1.2072380688906636e-13,0.01480823327869861,0.05058627107756713
0.53005300530053,1.0164783951269149e-13,0.08156339846341865,0.0485770279646699
0.5310531053105311,8.553858458371371e-14,0.014256932855737738,0.047175671725190015
0.532053205320532,7.194235398963285e-14,-0.056548978593474096,0.0463558394415673
0.5330533053305331,6.047361148545251e-14,-0.03625222736353846,0.04602789907385969
0.534053405340534,5.0804928429045295e-14,0.01059534060612715,0.046049090590354114
0.5350535053505351,4.2658389896052756e-14,0.08411473720476963,0.04624024088717315
0.536053605360536,3.5798246306790634e-14,0.03573034528163415,0.046407700521078635
0.5370537053705371,3.0024633951068245e-14,0.07470833679785721,0.04636829415012054
0.538053805380538,2.5168212254675364e-14,0.011909479971305346,0.045974545530407404
0.5390539053905391,2.1085586788665064e-14,0.09105607027183035,0.04513727411040206
0.54005400540054,1.7655405312458813e-14,0.13600383626635457,0.04384270647904882
0.5410541054105411,1.4775029941918876e-14,0.19437631973138889,0.042161398237803474
0.5420542054205421,1.235770217353638e-14,0.17672965862050405,0.040246630140940876
0.543054305430543,1.0330129263014167e-14,0.25190143040897706,0.038320771443508046
0.5440544054405441,8.630430601074138e-15,0.11418076331885654,0.03664955753673986
0.545054505450545,7.206391469033744e-15,0.011678518653830211,0.035506244896146406
0.5460546054605461,6.013979081054018e-15,-0.07940151060994712,0.03512986495656189
0.547054705470547,5.016082293566333e-15,-0.2541383350605171,0.03568375155616838
0.5480548054805481,4.181441928193451e-15,-0.22079358759021384,0.03722151565201962
0.549054905490549,3.4837434365975e-15,-0.1915260569345654,0.03966719173285638
0.5500550055005501,2.9008477416509784e-15,-0.11200704087568117,0.04281428276546928
0.551055105510551,2.4141396124074334e-15,-0.023378395752280255,0.046345267178055746
0.5520552055205521,2.0079759512304513e-15,0.0943752861098987,0.049869537260718945
0.553055305530553,1.669218959995561e-15,0.20120143819064043,0.05297450755057331
0.5540554055405541,1.3868413688812998e-15,0.21817978040623337,0.0552823774861563
0.555055505550555,1.1515928081016314e-15,0.24274023077958534,0.05650410850266528
0.5560556055605561,9.557180250394208e-16,0.23649185771986297,0.056482649284120084
0.5570557055705571,7.927190354954045e-16,0.22113208505613557,0.0552190898409266
0.558055805580558,6.57154481664189e-16,0.2764962585286593,0.052877841923812716
0.5590559055905591,5.444704798644066e-16,0.12912368785652528,0.04976974495184161
0.56005600560056,4.508581028269696e-16,0.07800472857416652,0.04631491833451139
0.5610561056105611,3.731333758656369e-16,-0.00970401656265765,0.0429899902574234
0.562056205620562,3.0863629189553957e-16,-0.12743857546706241,0.04026669287971053
0.5630563056305631,2.5514588281301475e-16,-0.20659037668792796,0.03855030987251248
0.564056405640564,2.108088377603326e-16,-0.2761035701839278,0.038126754705529994
0.5650565056505651,1.7407954389427178e-16,-0.16785857197214124,0.03912597391024802
0.566056605660566,1.4366975242654958e-16,-0.1475389053178111,0.0415069489280638
0.5670567056705671,1.1850635044224964e-16,-0.012580392296652879,0.04506615440304159
0.568056805680568,9.769595463884442e-17,0.1163253214872284,0.04946756266642422
0.5690569056905691,8.049524291329792e-17,0.2947570703499862,0.054288925946703745
0.57005700570057,6.628610900306629e-17,0.2012691050659362,0.05907679471977568
0.5710571057105711,5.4554868722151736e-17,0.21299664874920704,0.06340199032609019
0.5720572057205721,4.487486762329115e-17,0.13673834973139384,0.06690808695820492
0.573057305730573,3.689194248501324e-17,0.1616569521811072,0.0693474071475959
0.5740574057405741,3.0312275701630105e-17,0.11606139988656905,0.07060135445035093
0.575057505750575,2.4892254858548824e-17,0.20821364848457594,0.070684024414952
0.5760576057605761,2.0430011559399978e-17,0.14175055138164175,0.06972977676064683
0.577057705770577,1.6758365683118004e-17,0.06278592771314241,0.06796693760202092
0.5780578057805781,1.3738945174053834e-17,0.0240527939021905,0.06568118101860566
0.579057905790579,1.125728846865917e-17,-0.0713349826460267,0.06317336439717954
0.5800580058005801,9.218767809658591e-18,-0.05070336447054888,0.06071738214480187
0.581058105810581,7.545197901958712e-18,-0.09951754791135327,0.058523656242833705
0.5820582058205821,6.172016394313274e-18,-0.0698132461865423,0.05671309817783052
0.583058305830583,5.045941179870288e-18,-0.08086000815193908,0.055304885374594506
0.5840584058405841,4.1230250497456454e-18,0.021152826179651505,0.0542194503405657
0.585058505850585,3.367041274324446e-18,0.03616368375935031,0.05329596687895573
0.5860586058605861,2.748144622331224e-18,0.11366053728854328,0.05232163459949682
0.5870587058705871,2.241761491842486e-18,0.09377884307782121,0.051068514796583725
0.588058805880588,1.8276705022752467e-18,0.10461085411294273,0.04933278184715299
0.5890589058905891,1.4892413199090905e-18,0.16055486874954553,0.046971069587679555
0.59005900590059,1.212804862250757e-18,0.19555049680116324,0.04392899382624814
0.5910591059105911,9.871325175598258e-19,0.19654324883109076,0.04025778772916493
0.592059205920592,8.030057674275041e-19,0.1645706453005058,0.03611627079539855
0.5930593059305931,6.528607321852583e-19,0.2164412201170073,0.031757110289123786
0.594059405940594,5.304947718171157e-19,-0.026835359609197737,0.027498455001421222
0.5950595059505951,4.308244535677362e-19,-0.051112703834082916,0.023684288449442252
0.596059605960596,3.4968601264203936e-19,-0.031070602096679334,0.020638867594613294
0.5970597059705971,2.8367094390677964e-19,-0.2214164827264979,0.018621912685402423
0.598059805980598,2.2999062034270757e-19,-0.2128628063815294,0.017791457094925755
0.5990599059905991,1.8636488006669409e-19,-0.22808994924955567,0.018180381752537913
0.6000600060006,1.5093039314991257e-19,-0.11928666057575009,0.01969073000792404
0.6010601060106011,1.2216534157767653e-19,-0.0035789812721725087,0.022107109904997792
0.6020602060206021,9.882754510358674e-20,0.11213038320275587,0.0251272805247971
0.603060306030603,7.990366298226113e-20,0.13934578738485054,0.02840509606934726
0.6040604060406041,6.456751377918074e-20,0.1613425099515125,0.03159903951813702
0.605060506050605,5.214589697302707e-20,0.14465992653289775,0.034418965659593466
0.6060606060606061,4.209058283265215e-20,0.22609860008202098,0.036664288025786224
0.607060706070607,3.3955371026710856e-20,0.20449749736199663,0.03824830995457166
0.6080608060806081,2.737731190579316e-20,0.22008305851479204,0.039205370380145974
0.609060906090609,2.20613442927348e-20,0.10881974452285628,0.03967978029664897
0.6100610061006101,1.7767735673541924e-20,0.05783975000234065,0.03989805486274902
0.611061106110611,1.4301819677861704e-20,-0.015531812887609365,0.0401284522728871
0.6120612061206121,1.1505615644561986e-20,-0.14894344596178083,0.04063390804132563
0.613061306130613,9.250989181924126e-21,-0.13543397943588703,0.041625685992884146
0.6140614061406141,7.43407368905879e-21,-0.222357767873118,0.04322517133980479
0.6150615061506151,5.970723074425157e-21,-0.16271012013440725,0.045440112297662545
0.6160616061606161,4.7928072690370575e-21,-0.0903651418015489,0.048159391282348724
0.6170617061706171,3.845196143456105e-21,0.04688199408764168,0.051167411766854715
0.618061806180618,3.083305387932957e-21,0.05315518546313105,0.054175955635552865
0.6190619061906191,2.4711008702455817e-21,0.19413897979154576,0.05686852972720404
0.62006200620062,1.9794768272069584e-21,0.14919126692923013,0.058950308211082866
0.6210621062106211,1.5849387015457256e-21,0.26125366919980786,0.060196032885486334
0.622062206220622,1.2685341069921661e-21,0.2050651185845103,0.06048861271136991
0.6230623062306231,1.0149857868988409e-21,0.254871862890846,0.05984247100881819
0.624062406240624,8.1198893459888845e-22,0.26888501566999284,0.05840769193377995
0.6250625062506251,6.496422040555876e-22,0.2497406336141225,0.056453508345729625
0.626062606260626,5.199874349206609e-22,0.12022073615768251,0.0543324904658807
0.6270627062706271,4.1663777560659535e-22,-0.10789657081530614,0.05242976588518761
0.628062806280628,3.3447769972102215e-22,-0.04111639465068881,0.05110437111472898
0.6290629062906291,2.6942153026165595e-22,-0.2150932446688323,0.05063180249522466
0.6300630063006301,2.182196400450005e-22,-0.30394378795178095,0.05115741765109632
0.6310631063106311,1.7830359121188512e-22,-0.36663379907358173,0.052669293835666375
0.6320632063206321,1.476631982273207e-22,-0.3395515730557536,0.05499652852911628
0.633063306330633,1.2474991950051463e-22,0.008721520611953991,0.057834922084058576
0.6340634063406341,1.084021623732602e-22,0.2297093672428552,0.06079690371777604
0.635063506350635,9.778907475134191e-23,0.3567559118175099,0.0634774115423122
0.6360636063606361,9.237023628379228e-23,0.4968448576546363,0.06552364228380501
0.637063706370637,9.186938882931612e-23,0.500281177518126,0.06669536521592136
0.6380638063806381,9.62609914540744e-23,0.40793637638035,0.06690422208712124
0.639063906390639,1.0576897749507552e-22,0.2449071180663705,0.06622460192275012
0.6400640064006401,1.2087765621572347e-22,0.1468131165152625,0.0648742517534536
0.641064106410641,1.423552640646262e-22,-0.05912842998871523,0.06316853512880267
0.6420642064206421,1.7129125521337462e-22,-0.20392056431379896,0.06145703770782675
0.643064306430643,2.0914905350182513e-22,-0.23608683905327044,0.06005421841557128
0.6440644064406441,2.578366957480021e-22,-0.2514386660921075,0.059176598121848924
0.6450645064506451,3.197986102841762e-22,-0.26662855552076814,0.05889756555582115
0.6460646064606461,3.98132729633741e-22,-0.176174642257565,0.05912767040948067
0.6470647064706471,4.967382733116117e-22,-0.12300103808434149,0.05962394325215737
0.648064806480648,6.20500904129383e-22,0.021112992668218873,0.060027048294626906
0.6490649064906491,7.75523616810761e-22,0.19931481920938854,0.059920587369794595
0.65006500650065,9.694137305487476e-22,0.2611360416486916,0.05890323880488725
0.6510651065106511,1.2116388111607586e-21,0.4214071291013095,0.056662199594700285
0.652065206520652,1.5139673452270393e-21,0.39147022791581554,0.05303602763459799
0.6530653065306531,1.8910136512154545e-21,0.29737085514060757,0.04805658637800345
0.654065406540654,2.3609109907273218e-21,0.20348732149948673,0.04196311778890938
0.6550655065506551,2.946142318499851e-21,0.11268975005160642,0.035185852576091976
0.656065606560656,3.6745648037046156e-21,0.0781369266338753,0.028301108085971326
0.6570657065706571,4.580672436065331e-21,0.06465676617025826,0.02196371837882524
0.658065806580658,5.707151024848292e-21,-0.06470201665166472,0.0168254861703934
0.6590659065906591,7.106792103511035e-21,-0.25853302376287196,0.01345013576512429
0.6600660066006601,8.844847149396214e-21,-0.323131634589526,0.01223604276956617
0.6610661066106611,1.1001921701149064e-20,-0.33069129337742764,0.013357645512354662
0.6620662066206621,1.367753111619182e-20,-0.325175180852846,0.016734571324653374
0.663066306630663,1.6994466717633717e-20,-0.2710684991177176,0.02203404846369214
0.6640664066406641,2.110415397858582e-20,-0.10475651582981413,0.028707509323793092
0.665066506650665,2.6193224448049704e-20,0.1371027119825815,0.03605713938845339
0.6660666066606661,3.249157187085153e-20,0.2439146454957757,0.043323326752578974
0.667066706670667,4.0282222254153445e-20,0.4336209745996691,0.04978040519983589
0.6680668066806681,4.9913419738139455e-20,0.5024260037566393,0.05482655136150878
0.669066906690669,6.181341776829424e-20,0.4494360123704911,0.05805462188862839
0.6700670067006701,7.650857154853263e-20,0.30717296346766326,0.05929400430756297
0.671067106710671,9.464545708468035e-20,0.12362244945221113,0.058618591806497526
0.6720672067206721,1.1701789916123695e-19,-0.07969786401685597,0.056321724024893695
0.673067306730673,1.4459998121388083e-19,-0.0357286848615819,0.052864089094072475
0.6740674067406741,1.7858634139767182e-19,-0.19448862026011132,0.048804082010691564
0.6750675067506751,2.2044133985481424e-19,-0.06450666325937346,0.04472148974037717
0.6760676067606761,2.719590227499689e-19,-0.19768688414480923,0.041144838415911045
0.6770677067706771,3.3533622180462513e-19,-0.05849660972145378,0.038490901271507
0.678067806780678,4.1326162930433975e-19,-0.0859289613508755,0.03702235325193973
0.6790679067906791,5.090242966946205e-19,-0.06224060160663588,0.03682683718881109
0.68006800680068,6.266457428354595e-19,-0.009432026858332866,0.03781809834785692
0.6810681068106811,7.710407536719892e-19,-0.042197192838291375,0.03975754934850724
0.682068206820682,9.48213042569017e-19,0.010047675882571886,0.042292720256142335
0.6830683068306831,1.165493261487121e-18,0.123663135904298,0.04500751284509781
0.684068406840684,1.431828458501609e-18,0.20424706810920615,0.047478009164385854
0.6850685068506851,1.7581340293634466e-18,0.3389533450524726,0.049326916591333585
0.686068606860686,2.1577215866100784e-18,0.16968253029229463,0.05026987073790104
0.6870687068706871,2.6468190636097082e-18,0.1320396349698243,0.050148040619043745
0.688068806880688,3.245202899347592e-18,0.05807569286996715,0.04894368600713203
0.6890689068906891,3.976966456735594e-18,0.13308168527842454,0.04677791519688087
0.6900690069006901,4.871454091114909e-18,-0.003277867897735376,0.0438921650116349
0.6910691069106911,5.964396727954022e-18,0.06113990568748455,0.040616509813074304
0.6920692069206921,7.29929270521852e-18,0.0481846841745465,0.03732886177854609
0.693069306930693,8.92908733054357e-18,-0.06978744643889193,0.03440964407015037
0.6940694069406941,1.0918216526415166e-17,-0.013866553460512472,0.032196721881874044
0.695069506950695,1.3345094627464782e-17,-0.002873976341454622,0.030945289080096253
0.6960696069606961,1.6305144530465785e-17,-0.1658202752969383,0.030796999223323455
0.697069706970697,1.9914490833196252e-17,-0.022504256147476254,0.031761880127534274
0.6980698069806981,2.431446441019113e-17,-0.10230486856636095,0.033715493818028824
0.699069906990699,2.967710142362695e-17,-0.20066492711139808,0.03641240174790572
0.7000700070007001,3.6211862781916896e-17,-0.0004520698160596602,0.03951527266442155
0.701070107010701,4.4173853727118924e-17,0.10376358720206645,0.04263697626325685
0.7020702070207021,5.3873890339010635e-17,0.13432835568068183,0.04539091701984491
0.7030703070307031,6.5690843832267e-17,0.2519431863373649,0.047443114416370814
0.7040704070407041,8.008679911027509e-17,0.22400441674018265,0.04855870620535065
0.7050705070507051,9.762569688709673e-17,0.23591235434460797,0.048635976722865314
0.7060706070607061,1.1899629615701796e-16,0.2649316576477815,0.04772260653427582
0.7070707070707071,1.4504050528327366e-16,0.17771771534516145,0.04601126502438846
0.708070807080708,1.7678839751962326e-16,0.10718465356933359,0.04381454504284589
0.7090709070907091,2.15501565753352e-16,0.029890354996322074,0.04152220838625867
0.71007100710071,2.627269013501924e-16,-0.01856108457647139,0.03954639180910245
0.7110711071107111,3.2036342837967365e-16,-0.18682877657807087,0.03826241913707577
0.712071207120712,3.9074551943751625e-16,-0.18384652825049905,0.037953855345085004
0.7130713071307131,4.767467040037474e-16,-0.3394931903150326,0.03877022037277727
0.714071407140714,5.819094075348153e-16,-0.21477136059316676,0.04070423847181878
0.7150715071507151,7.106073967419257e-16,-0.1257379392695812,0.04359264966891549
0.716071607160716,8.682495399613412e-16,0.0695929894245986,0.04714075309226773
0.7170717071707171,1.0615358312878612e-15,0.16849253041143306,0.05096667248340263
0.7180718071807181,1.2987796137606688e-15,0.3229492672836202,0.05465778066986373
0.7190719071907191,1.5903137496173464e-15,0.376942879571595,0.057829661028079356
0.7200720072007201,1.949003352896255e-15,0.26735954980770155,0.06017788936233924
0.7210721072107211,2.3908939123203537e-15,0.225954670595444,0.061514742577465725
0.7220722072207221,2.9360315603805763e-15,0.16222197699023144,0.061786149430751156
0.723072307230723,3.609502357960574e-15,0.006227832924208178,0.061067936276515425
0.7240724072407241,4.442750359415444e-15,0.045291342938057956,0.059543820855245407
0.725072507250725,5.475250657367743e-15,-0.06413948770217717,0.05747008290760075
0.7260726072607261,6.7566345379452235e-15,-0.062243196075689664,0.05513315729594218
0.727072707270727,8.349390518265747e-15,0.0053183452227894695,0.05280660138933105
0.7280728072807281,1.0332298921349572e-14,-0.10935992248899395,0.05071321574966483
0.729072907290729,1.2804800705087228e-14,-0.07499844345797965,0.04899685260400911
0.7300730073007301,1.5892555945632347e-14,0.06735080414234937,0.04770689768410391
0.731073107310731,1.9754516768833758e-14,-0.07612594389803726,0.04679673267276114
0.7320732073207321,2.4591927532468918e-14,-0.1631864351394731,0.046135816780641506
0.7330733073307331,3.0659776650055517e-14,0.10698202729922673,0.04553346984515631
0.7340734073407341,3.828136597037186e-14,0.18407229732431282,0.04477096930303924
0.7350735073507351,4.78668433442251e-14,0.21888666667094758,0.04363721008929253
0.7360736073607361,5.99367729115612e-14,0.2486140854928982,0.041962321025491196
0.7370737073707371,7.515211089786543e-14,0.11050769909904373,0.03964386495695082
0.738073807380738,9.43523343572146e-14,0.14898139961156004,0.036661718972206825
0.7390739073907391,1.186039704365215e-13,0.04765125267361537,0.03307996649051085
0.74007400740074,1.4926245078696965e-13,0.024705851543471213,0.029036448026555597
0.7410741074107411,1.8805116902291567e-13,-0.03245763279419595,0.02472251302589594
0.742074207420742,2.3716303206569117e-13,-0.06568452159961256,0.02035676774912288
0.7430743074307431,2.9939201892806063e-13,-0.14787563927103808,0.016157160806490108
0.744074407440744,3.7830597396686427e-13,0.023464711376316616,0.012315587005970338
0.7450745074507451,4.784784015442758e-13,-0.015021001758184056,0.008978397888649863
0.746074607460746,6.058090185998929e-13,-0.08323534408732537,0.006235022014735107
0.7470747074707471,7.679853953951072e-13,-0.09813010660988811,0.004115679352286428
0.7480748074807481,9.751811597792682e-13,-0.12785442554895876,0.0025981314297687133
0.7490749074907491,1.241169225344381e-12,-0.03631313542124398,0.0016224132566052634
0.7500750075007501,1.585188160167824e-12,0.06518793326393865,0.0011113052148788085
0.7510751075107511,2.0352058354729816e-12,0.3000607294695135,0.000992975249332572
0.7520752075207521,2.633807363546046e-12,0.21420700269960447,0.0012212312567816935
0.753075307530753,3.4490356213298367e-12,0.12000615890252703,0.0017888379000717811
0.7540754075407541,4.594574410676651e-12,-0.006159926240831309,0.002730743446496538
0.755075507550755,6.267485600872395e-12,-0.05978014322874885,0.004116489436423279
0.7560756075607561,8.818718253150073e-12,0.04731978793977003,0.006033600568867664
0.757075707570757,1.2884308554348074e-11,-0.08906483599935576,0.008565503428111488
0.7580758075807581,1.9627931308820388e-11,-0.11239682203967649,0.011768242110158103
0.759075907590759,3.118564829380173e-11,-0.11929351107156891,0.01565018047956527
0.7600760076007601,5.147367422252957e-11,-0.1033608719213149,0.020158236941030555
0.761076107610761,8.76398440014198e-11,0.04574283812539247,0.025173032351083684
0.7620762076207621,1.5264090679144408e-10,-0.003485533894829168,0.030513748398911134
0.7630763076307631,2.6975868905101943e-10,0.06314628988554621,0.035951842717654225
0.7640764076407641,4.803966000439511e-10,0.06730907281288817,0.04123147117130647
0.7650765076507651,8.573112059668634e-10,0.06355469502693516,0.04609373714726167
0.7660766076607661,1.5266226207277412e-09,0.07920123961567868,0.05030166267848767
0.7670767076707671,2.7035550504929076e-09,0.1330081618870878,0.05366288729414622
0.768076807680768,4.748748872935035e-09,0.21018292478696143,0.05604742570220191
0.7690769076907691,8.253553106117598e-09,0.13320413818774274,0.05739835651374517
0.77007700770077,1.416228706636926e-08,0.08975371956718911,0.057734177757279244
0.7710771077107711,2.3933199982740077e-08,0.06009122854930847,0.05714279163131148
0.772077207720772,3.971968787255962e-08,-0.05348733057679709,0.055768460296104605
0.7730773077307731,6.45035078149461e-08,-0.06397618513730408,0.05379419622402572
0.774077407740774,1.0200330370744066e-07,0.022821450318965007,0.051422543703224716
0.7750775077507751,1.5596419944726933e-07,0.013476294496598843,0.04885743268245461
0.7760776077607761,2.2802378691946307e-07,0.06605245018357389,0.04628891139616231
0.7770777077707771,3.12614915556296e-07,0.07698561002354806,0.04388150368089743
0.7780778077807781,3.861109920819042e-07,0.05522540474887708,0.041766109789871206
0.7790779077907791,3.85374004503137e-07,0.08018728466952565,0.04003497605106072
0.7800780078007801,1.6768328663457452e-07,0.0008443501372816312,0.038739262857304016
0.7810781078107811,-5.606880818504769e-07,-0.0213981038766701,0.03788897415534384
0.7820782078207821,-2.366584116758064e-06,0.024145077627528773,0.03745525405219288
0.7830783078307831,-6.290773739676328e-06,-0.019095516383047767,0.037375099549064025
0.7840784078407841,-1.416597505247297e-05,0.15099107513669338,0.037558293614940785
0.785078507850785,-2.9101962480958717e-05,0.0028388045849216392,0.03789594367542517
0.7860786078607861,-5.6197640428737756e-05,0.08801352916586111,0.03826967359217282
0.787078707870787,-0.00010354491886160602,0.016897122305984273,0.03856046048481839
0.7880788078807881,-0.00018358356591934076,0.02039775428604687,0.03865631085925957
0.789078907890789,-0.00031484271722631904,-0.010481169917735969,0.03845823876171434
0.7900790079007901,-0.0005240552637211883,0.15434660887472856,0.037884153365778606
0.7910791079107911,-0.0008485485340755522,0.09567973605389103,0.0368702462964752
0.7920792079207921,-0.001338694512931781,0.09252797576550081,0.03536945488856118
0.7930793079307931,-0.0020600480633774596,0.11097788586664761,0.0333468377998713
0.7940794079407941,-0.003094625477209943,0.05137600047832037,0.030772368350965803
0.7950795079507951,-0.004540604709598744,0.0021018745830721527,0.027612598978224833
0.7960796079607961,-0.006509603418842439,-0.12554076118643007,0.02382360482011473
0.7970797079707971,-0.009120662990799923,-0.15942937139697755,0.019348278081282956
0.7980798079807981,-0.01249019091146352,-0.22653539759474053,0.014121089921624764
0.7990799079907991,-0.016717435684379372,-0.1399434272180025,0.00808256830794295
0.8000800080008,-0.021865608261643264,-0.040581828736101874,0.0012038847031304732
0.8010801080108011,-0.027939500689992278,0.07896567570360949,-0.006480601746301728
0.802080208020802,-0.03486131271144254,0.27021466290671836,-0.014837570058494549
0.8030803080308031,-0.04244725248871879,0.14877966791078398,-0.023602248581244715
0.804080408040804,-0.05038815865907869,0.130000810653903,-0.03235606566462703
0.8050805080508051,-0.05823771348122501,0.09429214169210726,-0.04052002158369046
0.8060806080608061,-0.06541162235981689,0.05890411082722593,-0.04736692906733682
0.8070807080708071,-0.07120033477012598,-0.016732628799541252,-0.05205283554461031
0.8080808080808081,-0.07479649431398304,-0.04984239947303676,-0.05366531608346098
0.8090809080908091,-0.0753364765156389,-0.10403293041088986,-0.05128420872491202
0.8100810081008101,-0.07195336460104577,-0.1332081492461167,-0.04404888670207484
0.8110811081108111,-0.06383686582076523,-0.20464974942515873,-0.031225414747172893
0.8120812081208121,-0.050294335559866725,-0.1009548492127722,-0.012266966820658528
0.8130813081308131,-0.030806539602547586,-0.1016508717522419,0.013138327467214913
0.8140814081408141,-0.005072196784724374,-0.04319549568686598,0.04503651979847346
0.815081508150815,0.02696332437592836,-0.12915804556144977,0.08319658237672922
0.8160816081608161,0.06509774321160476,0.012615480301543414,0.12711945172089825
0.817081708170817,0.1088802377277841,0.24498297062213448,0.17606611003698083
0.8180818081808181,0.15763633296402255,0.3312670961250861,0.2291014256876359
0.819081908190819,0.21050535202902354,0.386357627917388,0.2851486925412334
0.8200820082008201,0.26648540427384887,0.5103463146592682,0.3430487903432084
0.8210821082108211,0.3244807081924994,0.4339629412627591,0.4016179901764916
0.8220822082208221,0.3833467043938725,0.5334278878213183,0.45969951253217806
0.8230823082308231,0.44192968871139976,0.5520473741168324,0.5162055352591761
0.8240824082408241,0.4990992711801965,0.5109745998171538,0.57014795605942
0.8250825082508251,0.5537735057003709,0.7377130670347476,0.620657519931761
0.8260826082608261,0.6049377523362175,0.7384959866681553,0.666991825374488
0.8270827082708271,0.6516590494210357,0.7235133321703291,0.7085333416028863
0.8280828082808281,0.6930979345375486,0.7376324331651591,0.7447791545024756
0.8290829082908291,0.728519330976678,0.7897284920042551,0.7753248652523299
0.83008300830083,0.7573034659433964,0.6636575992952406,0.7998457714420837
0.8310831083108311,0.7789570065288759,0.728703313643509,0.8180788962320046
0.832083208320832,0.7931238817088566,0.7154964450043257,0.8298093910175437
0.8330833083308331,0.7995947524222707,0.7817836148571816,0.8348642285871389
0.834083408340834,0.7983138802304305,0.7333109716344123,0.8331149707936004
0.8350835083508351,0.7893822392677858,0.8213288009550167,0.8244899539555465
0.8360836083608361,0.7730560636848922,0.7436177386076843,0.8089947711316864
0.8370837083708371,0.7497405259752858,0.8097050728099373,0.7867386413167502
0.8380838083808381,0.7199787815388609,0.762719258512835,0.7579632287472466
0.8390839083908391,0.6844370758289039,0.7586687766836449,0.7230697460671285
0.8400840084008401,0.6438869017386901,0.8249192947893533,0.6826397702889395
0.8410841084108411,0.5991852671979947,0.8256277305169207,0.6374451742817282
0.8420842084208421,0.5512539872824422,0.8059489241922744,0.5884430541923034
0.8430843084308431,0.5010586027519974,0.7071362248250996,0.5367527022918327
0.8440844084408441,0.4495871396416516,0.6245671619267015,0.4836136426629977
0.845084508450845,0.3978285760224655,0.49486783612512636,0.43032636403885105
0.8460846084608461,0.34675068281234234,0.3167069806296713,0.3781802370306624
0.847084708470847,0.2972769357595617,0.20038980869020162,0.32837567378565835
0.8480848084808481,0.2502624824108739,-0.025383834225597778,0.2819493854948218
0.849084908490849,0.20646965197409226,-0.10240052560519702,0.23971219537147267
0.8500850085008501,0.16654411467281258,-0.1191304170654536,0.20220795705895342
0.8510851085108511,0.13099338251456036,-0.10997610079151113,0.16969960266491907
0.8520852085208521,0.10016973452979845,0.1219808466430986,0.14218444225811
0.8530853085308531,0.0742597117089694,0.22340898673032134,0.11943622755605154
0.8540854085408541,0.05328198722230894,0.27672902060568816,0.10106717469396713
0.8550855085508551,0.03709468824101309,0.2939413961042139,0.08660013458961476
0.8560856085608561,0.025412227295002778,0.312496317112027,0.07554003031149474
0.8570857085708571,0.017830563957775863,0.3249444164424916,0.06743453704178391
0.8580858085808581,0.013858765686834537,0.3430847219136524,0.06191628834886055
0.8590859085908591,0.012953962336419052,0.2478192584881853,0.05872211899641302
0.86008600860086,0.014556430780658967,-0.00891768807046292,0.05768859533568756
0.8610861086108611,0.018121659871287374,-0.0005923906278581456,0.05872691534348053
0.862086208620862,0.02314679540015556,-0.10450442330576738,0.0617835462986894
0.8630863086308631,0.02918973432324958,-0.12010823643234002,0.06679500414862422
0.8640864086408641,0.035880161862040114,-0.22004540078080345,0.07364558922773003
0.8650865086508651,0.042922826930418274,-0.1496245919391383,0.08213577676848956
0.8660866086608661,0.050094177915253585,0.013142540811644905,0.09196664769373088
0.8670867086708671,0.05723403070876201,0.1589099694351309,0.1027426372927175
0.8680868086808681,0.06423417588379958,0.14007402638592004,0.11399157546665772
0.8690869086908691,0.07102577396557233,0.19097273557120373,0.1251982768361999
0.8700870087008701,0.07756710385569042,0.2083337967243081,0.13584638820369685
0.8710871087108711,0.0838328101827032,0.16695547292778232,0.1454628373089818
0.8720872087208721,0.08980533313342193,0.15994133181450612,0.15365964895230164
0.8730873087308731,0.09546877625749317,0.21164500975311978,0.1601686430112626
0.8740874087408741,0.10080512554888638,0.3786508356786306,0.16486529844028666
0.875087508750875,0.10579250065208579,0.28823183327915214,0.1677787999767816
0.8760876087608761,0.11040499593554015,0.34944389924908575,0.16908620787060652
0.877087708770877,0.11461363804349528,0.28412533258353,0.16909012488529887
0.8780878087808781,0.11838802131345155,0.23012319516294924,0.16818124870501996
0.8790879087908791,0.12169825569885738,0.047779741787475044,0.1667895081347075
0.8800880088008801,0.12451694992765838,0.08243739922988642,0.16532961668915883
0.8810881088108811,0.12682103838450456,-0.1383650593804865,0.16414833397173464
0.8820882088208821,0.12859333343417356,-0.10600846391956081,0.16348107100674042
0.8830883088308831,0.12982374142399042,-0.06057489514642905,0.16342446569182126
0.8840884088408841,0.13051012054273062,0.06502471966577057,0.163929218659048
0.8850885088508851,0.13065878469757758,0.22138325700799244,0.16481419503613529
0.8860886088608861,0.13028467319288517,0.20351631811423024,0.16579930512571722
0.8870887088708871,0.1294112147573936,0.23090378368647585,0.16655184793508748
0.8880888088808881,0.1280699191986063,0.15678047631009423,0.1667393935775224
0.8890889088908891,0.12629973261879576,0.37663680076568107,0.16608187420708537
0.89008900890089,0.12414619384066072,0.453943566355153,0.16439596027055275
0.8910891089108911,0.12166043095860468,0.3436343969656836,0.1616257732984858
0.892089208920892,0.11889803783203344,0.19651285487273334,0.15785565419442998
0.8930893089308931,0.11591787072736444,0.254743139302651,0.1533031750708862
0.8940894089408941,0.11278080498239113,0.17022860206201826,0.1482934655363995
0.8950895089508951,0.10954849032389431,0.1957723938993115,0.1432185235371335
0.8960896089608961,0.10628214120973774,0.06994678709586333,0.13848708326010198
0.8970897089708971,0.10304139528020378,-0.02761239330767476,0.134471837211693
0.8980898089808981,0.09988326877403571,-0.18105187380026694,0.1314614231658382
0.8990899089908991,0.09686123275406423,-0.1898326578155738,0.12962439483008031
0.9000900090009001,0.09402442841292738,-0.10433135390922389,0.1289910324137167
0.9010901090109011,0.09141703384129457,0.13046793362451253,0.12945614122142263
0.9020902090209021,0.0890777887002223,0.10838155860614698,0.13080229755175232
0.9030903090309031,0.08703967749833291,0.26521627892800514,0.1327392399996083
0.9040904090409041,0.08532976686196912,0.33693708614100376,0.13495227293531592
0.905090509050905,0.08396918749455952,0.3867672273197458,0.1371512332068648
0.9060906090609061,0.0829732475980659,0.4090676541907796,0.13911185829739017
0.907090709070907,0.08235166147342868,0.24906581216030066,0.14070310855320953
0.9080908090809081,0.0821088748772923,0.25463691214227563,0.14189679982091136
0.9090909090909091,0.08224446748984066,0.19409897604329618,0.14275923839191024
0.9100910091009101,0.08275361250077905,0.08808635076803198,0.14342773836818223
0.9110911091109111,0.08362757376811314,-0.1053469052013365,0.1440773989619441
0.9120912091209121,0.08485422213939542,-0.08943700814723762,0.14488499912591402
0.9130913091309131,0.08641855421958346,-0.03660492914796046,0.14599707516963406
0.9140914091409141,0.08830319898455748,-0.06399082907176988,0.1475080205857267
0.9150915091509151,0.09048890003299448,0.07049063828848454,0.14945157472042492
0.9160916091609161,0.09295496380499836,0.2482132613765113,0.1518059480792633
0.9170917091709171,0.0956796666481403,0.31571124161275366,0.1545098220348717
0.9180918091809182,0.09864061607110115,0.36712200450304133,0.1574842638917254
0.9190919091909191,0.1018150638020205,0.372890656300922,0.1606547675371964
0.92009200920092,0.10518017029441225,0.2612040082455247,0.1639683695310659
0.9210921092109211,0.108713222051058,0.11032709329129521,0.16740280144875416
0.922092209220922,0.11239180453945939,0.05808266720459158,0.1709672078623385
0.9230923092309231,0.11619393454381166,0.06289514847475786,0.17469620602778674
0.9240924092409241,0.12009815654693042,-0.010551509398505451,0.17864026386922108
0.9250925092509251,0.12408360818323183,0.22493776587924721,0.18285526305362204
0.9260926092609261,0.12813005998261326,0.32450735558427524,0.18739297534306293
0.9270927092709271,0.132217934573594,0.27187589098377574,0.19229268872199828
0.9280928092809281,0.13632831027441933,0.3189272676695487,0.1975731773203945
0.9290929092909291,0.1404429136161555,0.29340730513272845,0.2032241590881939
0.9300930093009301,0.14454410485364094,0.14204077619144664,0.2091973036419012
0.9310931093109311,0.14861485996711604,0.07276108182232738,0.2153982437002399
0.9320932093209321,0.1526387520733713,0.04440422896344635,0.2216822623828036
0.9330933093309332,0.15659993457930518,-0.017507150216406177,0.22785678647444743
0.9340934093409341,0.16048312784603402,0.0900571269796594,0.23369313223589744
0.935093509350935,0.16427361060600604,0.25646639243499136,0.23894812758688827
0.9360936093609361,0.16795721690130883,0.294478879524456,0.24339370424327073
0.9370937093709371,0.17152033889637536,0.38542704367995256,0.24685005271585966
0.9380938093809381,0.17494993556619043,0.5836236290236794,0.24921623919555777
0.9390939093909391,0.1782335469721905,0.49647509358607217,0.25049182097863487
0.9400940094009401,0.1813593136100576,0.42190065461112775,0.2507841425164974
0.9410941094109411,0.18431600014220934,0.3675463381255013,0.250298508336903
0.9420942094209421,0.18709302270755468,0.1933428679962441,0.24931180511180634
0.9430943094309431,0.1896804789256761,0.12022078341381752,0.24813355346264518
0.9440944094409441,0.19206917967559253,0.061987876648091786,0.247060969166712
0.9450945094509451,0.19425068172415194,0.027967520896115948,0.24633585089311627
0.9460946094609461,0.19621732029991534,-0.08974134694946269,0.24611080759822357
0.9470947094709471,0.19796224074952934,0.14241381741368384,0.2464306223157443
0.9480948094809482,0.19947942847022615,0.12906630500179195,0.2472317494072776
0.9490949094909491,0.20076373637996944,0.24180889385707272,0.24835955398974432
0.95009500950095,0.2018109092624136,0.42681267852413707,0.2495995934125302
0.9510951095109511,0.2026176044043173,0.4671147588198725,0.25071671218812513
0.9520952095209521,0.20318140802607587,0.4949669817658661,0.251494498187568
0.9530953095309531,0.2035008470897598,0.4354429715552411,0.2517679865955043
0.9540954095409541,0.20357539615208275,0.3658912450154909,0.25144431968505787
0.9550955095509551,0.2034054790110087,0.2505277810361176,0.2505088943342512
0.9560956095609561,0.2029924649734457,0.14309966244418743,0.249017599912971
0.9570957095709571,0.20233865964708025,0.09353196873401722,0.2470783030920484
0.9580958095809581,0.20144729023143687,0.1796945020011344,0.24482621283260697
0.9590959095909591,0.20032248535136132,0.20963153638686247,0.24239794906745205
0.9600960096009601,0.19896924954007536,0.2605261083584763,0.2399082849402531
0.9610961096109611,0.19739343253849417,0.21574046108249953,0.23743223500095717
0.9620962096209621,0.195601693632477,0.20752933204282184,0.2349940286602433
0.9630963096309632,0.19360146129989897,0.14883535059429226,0.23256380477897043
0.9640964096409641,0.19140088848477235,0.05708382371983185,0.23006244965273862
0.965096509650965,0.1890088038559339,0.15948239009783263,0.22737452775749
0.9660966096609661,0.18643465944297655,0.20714877500887077,0.22436841264099616
0.9670967096709671,0.18368847507200267,0.31309623408440196,0.22092145991507475
0.9680968096809681,0.18078078004836418,0.361444551183744,0.21694669418411994
0.9690969096909691,0.1777225525528007,0.40499126394339535,0.2124165696982982
0.9700970097009701,0.1745251572312475,0.2744350031762819,0.2073793818625461
0.9710971097109711,0.17120028146716085,0.29424877520465725,0.2019649596867871
0.9720972097209721,0.167759870828503,0.28236132642137385,0.1963780573260467
0.9730973097309731,0.16421606417975107,0.1887831920715794,0.19087987198298753
0.9740974097409741,0.16058112894252619,0.15749365096586587,0.18575991714498463
0.9750975097509751,0.15686739697699273,0.10778559838742509,0.18130186260472445
0.9760976097609761,0.15308720154021482,0.10161379796936233,0.17774780743834953
0.9770977097709771,0.14925281575758434,0.04235631577980058,0.1752656855070181
0.9780978097809782,0.1453763930194866,0.11994150866924219,0.17392409767603756
0.9790979097909791,0.14146990968803252,0.1573628159155277,0.1736779281937951
0.98009800980098,0.1375451104682517,0.014877859333540203,0.1743668433785892
0.9810981098109811,0.1336134567651471,-0.016504745004162463,0.17572742137447836
0.9820982098209821,0.12968607831281262,0.15442642394574238,0.1774183053310446
0.9830983098309831,0.12577372832492445,0.20267994049981483,0.17905627757229273
0.9840984098409841,0.12188674237779538,0.26459761202787985,0.18025947454130933
0.9850985098509851,0.11803500119824369,0.2964644054307574,0.18069245444627002
0.9860986098609861,0.11422789748931517,0.4013618597075329,0.18010703860257776
0.9870987098709871,0.11047430688775128,0.3249594162728081,0.17837307921297926
0.9880988098809881,0.10678256310855326,0.31865877138603066,0.17549453102787238
0.9890989098909891,0.1031604372943429,0.3304471719059091,0.171608209489928
0.9900990099009901,0.09961512155095652,0.14313655427372052,0.16696508056598658
0.9910991099109911,0.09615321661605838,0.09316232703099185,0.16189644415124382
0.9920992099209921,0.09278072357494914,0.14518734898187718,0.1567695202328789
0.9930993099309932,0.08950303950733435,0.09541934582356575,0.151938355819203
0.9940994099409941,0.08632495692094948,0.028940741105793463,0.14769648214335962
0.995099509950995,0.08325066680269962,-0.11669554078656783,0.1442375020031258
0.9960996099609961,0.08028376509561379,-0.006213131153106101,0.1416289672418198
0.9970997099709971,0.07742726239046112,-0.021376283969100456,0.13980348824019276
0.9980998099809981,0.07468359660444972,-0.019191002777342946,0.13856890419309809
0.9990999099909991,0.07205464840605029,0.05267244536163897,0.13763669638202386
1.000100010001,0.06954175913460811,0.28014089671997444,0.13666505483813782
1.001100110011001,0.06714575095604515,0.37433709817165867,0.1353105631675596
1.0021002100210021,0.06486694899146447,0.2972809569404304,0.13328083943580563
1.0031003100310032,0.0627052051537842,0.2863571770933977,0.13038017628491214
1.004100410041004,0.0606599234284954,0.24508056949927617,0.12654144133958398
1.005100510051005,0.05873008633808188,0.3106927115485049,0.12183981170618534
1.0061006100610062,0.05691428233540492,0.18040926334685237,0.11648661969794197
1.0071007100710072,0.055210733879197185,0.17467987828251996,0.11080420497385461
1.008100810081008,0.053617325954568584,0.08865926676443124,0.10518503859354836
1.009100910091009,0.052131634812822916,-0.008310821355369907,0.10004038918509062
1.0101010101010102,0.0507509567177334,0.0010248851890443424,0.09574522425476317
1.011101110111011,0.04947233649945099,-0.07798195562188116,0.09258665952199388
1.012101210121012,0.04829259573223624,-0.09404387921414244,0.09072298181249001
1.0131013101310131,0.047208360367946026,-0.14358579536826285,0.09015911551038729
1.0141014101410142,0.04621608767345886,-0.11405064852962706,0.09074249634312107
1.015101510151015,0.045312092336792606,-0.1443976132866812,0.09218077906307243
1.016101610161016,0.044492571623322576,0.1513218043000991,0.09407977749956789
1.0171017101710171,0.04375362948008573,0.27028069052470893,0.09599680424902357
1.0181018101810182,0.043091299502458595,0.33336493626611813,0.09750171828536962
1.019101910191019,0.042501566693390835,0.38294390076628415,0.09823630443570032
1.02010201020102,0.04198038796069573,0.3803144273569837,0.0979627315077259
1.0211021102110212,0.04152371131254108,0.20267800314297996,0.09659381137793743
1.0221022102210222,0.04112749372512413,0.16455696272060238,0.09420106008234157
1.023102310231023,0.04078771766948397,0.16598828813453623,0.09100030221753223
1.024102410241024,0.04050040629641475,0.03874608805813871,0.08731794778616671
1.0251025102510252,0.04026163728945559,-0.04152483495908532,0.08354358730027718
1.026102610261026,0.0400675554058987,-0.14033233460958466,0.08007603666586646
1.027102710271027,0.03991438373466726,0.020591465159029154,0.07727039546766254
1.0281028102810281,0.03979843370775266,-0.07579361737165238,0.07539304139679005
1.0291029102910292,0.03971611390867902,-0.05841944974509326,0.07458992810464012
1.03010301030103,0.03966393772720137,-0.025168432231384312,0.07487149784955167
1.031103110311031,0.03963852991417068,-0.05933913800205671,0.07611536326545075
1.0321032103210321,0.03963663209425561,0.07863677096049046,0.0780858166515603
1.0331033103310332,0.039655107297045744,0.09668668319079006,0.08046723846371524
1.034103410341034,0.039690943569029524,0.1641097360633474,0.08290674356262749
1.035103510351035,0.03974125673010176,0.21529319515518278,0.08506018361902647
1.0361036103610362,0.039803292338677236,0.3253028495017434,0.0866351634588355
1.0371037103710372,0.03987442692923504,0.26207608752754097,0.08742516492200667
1.038103810381038,0.03995216858526237,0.1857740191725301,0.08733022728091358
1.039103910391039,0.04003415690917914,0.10548552832129798,0.0863617771125916
1.0401040104010402,0.04011816244897222,0.13589928979243837,0.08463173979682356
1.041104110411041,0.04020208563902319,0.0825142402348611,0.08232842356381691
1.042104210421042,0.04028395531004008,-0.058779836964849674,0.07968340852603141
1.0431043104310431,0.040361926820166524,0.00036820996838719464,0.07693467685619558
1.0441044104410442,0.040434279856303254,-0.09422693062420451,0.07429150597744136
1.045104510451045,0.04049941595149115,-0.0447798668269358,0.07190619378471512
1.046104610461046,0.04055585576092807,-0.03032502244893274,0.06985651501017827
1.0471047104710471,0.04060223613586909,0.03382061802084267,0.06814110704488305
1.0481048104810482,0.040637307031337645,-0.08997196114380365,0.06668805829514118
1.049104910491049,0.04065992828029099,0.07347576411515991,0.06537511218888618
1.05010501050105,0.040669066263672365,0.15223525038010902,0.06405826706816943
1.0511051105110512,0.04066379050267411,0.2536341757165358,0.06260423185304535
1.0521052105210522,0.040643270196555364,0.2239027289632067,0.060921407169426234
1.053105310531053,0.04060677072652591,0.17924156839965,0.05898416709888618
1.054105410541054,0.040553650143540274,0.1370370727914416,0.05684639525524241
1.0551055105510552,0.040483355655357066,-0.0008142899362152817,0.054642196323608117
1.056105610561056,0.04039542012591368,0.08949897145995621,0.05257384852800612
1.057105710571057,0.04028945859795528,0.0695174443642127,0.050888804817176
1.0581058105810581,0.04016516484793836,0.08329820185602091,0.04984862987361413
1.0591059105910592,0.0400223079805033,0.07314433134380216,0.04969330178638916
1.06010601060106,0.0398607290682766,0.0364602475001076,0.05060463175515173
1.061106110611061,0.039680337841412866,-0.035506438159856976,0.05267287365135029
1.0621062106210621,0.03948110943011601,-0.05640101924427354,0.055870864767563505
1.0631063106310632,0.03926308116237694,-0.19294502353340698,0.06004003026554789
1.064106410641064,0.039026349418324,-0.19706001558327907,0.06489200508886896
1.065106510651065,0.03877106654189037,-0.121872942265452,0.07002822074662084
1.0661066106610662,0.03849743780994952,-0.0073074979181832825,0.07497746317606935
1.0671067106710672,0.038205718458640986,0.09101378608197899,0.07924834323978021
1.068106810681068,0.037896210766297386,0.29662601171471664,0.08239043577289529
1.0691069106910691,0.03756926119217098,0.38471185286577697,0.08405534978428203
1.0701070107010702,0.03722525757003888,0.4899942149858795,0.08404792152711041
1.071107110711071,0.03686462635572113,0.35139573317714917,0.08235852821042179
1.072107210721072,0.03648782992757154,0.22481466021429822,0.07917024820149644
1.0731073107310731,0.03609536393908172,0.14879939145675405,0.07483874694964605
1.0741074107410742,0.03568775472286163,0.06934280806177198,0.06984737345508979
1.075107510751075,0.03526555674542423,-0.09239597140368998,0.06474395939595184
1.076107610761076,0.0348293501123873,-0.1736783338608671,0.060068529983628306
1.0771077107710771,0.03437973812391446,-0.15287746410373199,0.0562822972386937
1.0781078107810782,0.03391734488043096,-0.19913074205312134,0.053707882910400906
1.079107910791079,0.03344281293887446,-0.15809558308340535,0.05248885636700219
1.08010801080108,0.03295680101995728,-0.042189743944934854,0.05257375299535304
1.0811081108110812,0.03245998176713064,-0.05377321418605974,0.05372630178145173
1.0821082108210822,0.031953039558138024,-0.04672901743035668,0.05556017718782606
1.083108310831083,0.031436668370231305,0.04502067045913229,0.05759361095572825
1.0841084108410841,0.03091156970028581,0.1651294605049548,0.05931684527803699
1.0851085108510852,0.03037845054119609,0.3044053717069662,0.06026372547645076
1.086108610861086,0.029838021416049628,0.34463426656018076,0.06007786920138618
1.087108710871087,0.029290994471673576,0.3354055198962605,0.05856415585806851
1.0881088108810881,0.028738081633217772,0.2817240982196052,0.055718029092941
1.0891089108910892,0.028179992821476225,0.18595974145351224,0.05172817777961446
1.09010901090109,0.02761743423466913,0.14838864784279332,0.046952011373965284
1.091109110911091,0.0270511066963937,0.0684017855873087,0.04186725298796355
1.0921092109210921,0.026481704071420233,-0.07187378301969191,0.03700633441921946
1.0931093109310932,0.025909911750945164,-0.24684831021355816,0.03288271626246022
1.094109410941094,0.02533640520883459,-0.24702042361789786,0.029919512572237576
1.095109510951095,0.0247618486302837,-0.2302429038501478,0.028390603469916502
1.0961096109610962,0.024186893614196587,-0.21909899590774745,0.028382620189752877
1.0971097109710972,0.023612177950443625,-0.15751725449591356,0.029783014508575217
1.098109810981098,0.023038324472999163,-0.033535073558552286,0.03229548289889394
1.0991099109910991,0.022465939989785577,0.10476700050523792,0.03548000357419251
1.1001100110011002,0.021895614289867353,0.20377709239650418,0.0388112727571025
1.101110111011101,0.021327919228438713,0.19435675496596383,0.04174692758595099
1.102110211021102,0.020763407889847457,0.25247680234161585,0.043796006127076084
1.1031103110311031,0.020202613828687307,0.26856904123848735,0.04457868431033433
1.1041104110411042,0.019646050388772682,0.21375847299758335,0.043870158224225714
1.105110511051105,0.019094210099597265,0.05591667403260777,0.04162416596806292
1.106110611061106,0.018547564149656453,0.063821857778992,0.03797460787502517
1.1071107110711071,0.018006561935801167,0.033525393194527985,0.033216522908937146
1.1081108110811082,0.017471630687572386,0.004183224084784137,0.027769830571009076
1.109110911091109,0.01694317516526174,-0.014481328492707599,0.02213053456880014
1.11011101110111,0.01642157743023695,0.09924287214958147,0.016814636763446293
1.1111111111111112,0.015907196685878915,0.0712698463329968,0.01230012828140136
1.1121112111211122,0.015400369187286163,-0.15284783641746472,0.008972420904789497
1.113111311131113,0.014901408217729381,-0.13877172929138207,0.007078657929784894
1.1141114111411141,0.014410604129669026,-0.29400616382956474,0.006696369074409018
1.1151115111511152,0.013928224447997312,-0.2853618819842631,0.007721394692447332
1.116111611161116,0.013454514033019518,-0.24033394168529704,0.009878368836792072
1.117111711171117,0.012989695300562758,-0.06886857846070751,0.012754188289567212
1.1181118111811181,0.012533968496484369,0.1528108154567087,0.015851188846343782
1.1191119111911192,0.01208751202274664,0.2610769160866203,0.018653011514801116
1.12011201120112,0.011650482812139864,0.3526611827540526,0.02069340769296165
1.121112111211121,0.01122301674865899,0.28537946244369156,0.021617382212363603
1.1221122112211221,0.010805229130482019,0.2560301482019874,0.021225408175313952
1.1231123112311232,0.010397215172449426,0.16773978100049855,0.019494565194254607
1.124112411241124,0.009999050544915844,0.03534287760191514,0.016574493640281577
1.125112511251125,0.0096107919458253,-0.02941017254988408,0.012760096448941143
1.1261126112611262,0.009232477702859836,-0.005685082305592282,0.008446231849237094
1.1271127112711272,0.008864128402517506,-0.2088399108733068,0.00407180401305796
1.128112811281128,0.008505747543000892,-0.18927161385090202,6.156563371977311e-05
1.1291129112911291,0.008157322207829191,-0.18228346981930574,-0.0032263165629265976
1.1301130113011302,0.007818823757135067,-0.18100191523113024,-0.0055401951020630415
1.131113111311131,0.007490208533661701,-0.09299013364194765,-0.006757820583768391
1.132113211321132,0.007171418580544729,-0.18838057167979522,-0.006890317953554264
1.1331133113311331,0.006862382368040958,0.018792680282315687,-0.006068196342332461
1.1341134113411342,0.006563015526449141,0.1337852395663765,-0.00451285210763474
1.135113511351135,0.006273221582565021,0.18516745581471863,-0.002499021144088764
1.136113611361136,0.005992892697111882,0.20483526428931564,-0.00031474559104521153
1.1371137113711371,0.005721910400697974,0.1003818388898294,0.0017747303465460397
1.1381138113811382,0.005460146325963399,0.12094682337493143,0.0035541663977682442
1.139113911391139,0.005207462933700309,-0.0004112122250232511,0.004873949819140374
1.14011401140114,0.004963714230851403,-0.04434757355349687,0.0056538833905967895
1.1411141114111412,0.004728746478419917,0.02710791329398876,0.005876884136052803
1.1421142114211422,0.004502398887451338,-0.12235139299969891,0.005575602032991564
1.143114311431143,0.004284504301380264,-0.06730416275021488,0.0048154540197577035
1.1441144114411441,0.004074889863166598,-0.04331059293191754,0.0036774043596784754
1.1451145114511452,0.003873377665779512,-0.03467878047200741,0.002243172422146161
1.146114611461146,0.003679785384718705,-0.08149770458519115,0.0005845874121047386
1.147114711471147,0.003493926891395704,0.0794562705904626,-0.0012422454583393208
1.1481148114811481,0.003315612846328541,0.009662828438990273,-0.0031982432926200366
1.1491149114911492,0.003144651271230498,0.01001654421748753,-0.00525906254824805
1.15011501150115,0.0029808480992013155,0.00845954091648142,-0.007410501461375437
1.151115111511151,0.002824007702351336,-0.06530031364992414,-0.009642803301502132
1.1521152115211521,0.0026739333963098836,0.07889547806032908,-0.011944834323120263
1.1531153115311532,0.00253042792118391,0.04589848129314226,-0.014298885010257865
1.154115411541154,0.0023932938986460234,-0.02593091930779274,-0.01667666229214452
1.155115511551155,0.002262334264937427,-0.1138839271336369,-0.019036767460181545
1.1561156115611562,0.002137352679674679,-0.11411866280403485,-0.02132355999892193
1.1571157115711572,0.002018153910445659,-0.09664928727894881,-0.023467054867593658
1.158115811581158,0.0019045441932734747,0.10508421453939709,-0.025383729579930216
1.1591159115911591,0.0017963315691131609,0.12448995069949337,-0.02697882134344705
1.1601160116011602,0.0016933261966281567,0.12052682463674795,-0.02815138073054333
1.161116111611161,0.0015953406415684442,0.06075471806512387,-0.02880335889658456
1.162116211621162,0.0015021901431430743,-0.006846306105354277,-0.028853028959179725
1.1631163116311631,0.0014136928578442362,-0.15580911031653866,-0.028251361742747505
1.1641164116411642,0.001329670081238164,-0.254254101779727,-0.026998273400762315
1.165116511651165,0.0012499464482921597,-0.17171212300814948,-0.02515465677666878
1.166116611661166,0.0011743501128539766,-0.1941572843637414,-0.022846289298502086
1.1671167116711672,0.0011027129069425214,-0.0847228443728094,-0.020257144644994275
1.1681168116811682,0.001034870480544958,-0.01816987035020987,-0.01761191166327599
1.169116911691169,0.0009706624226475747,0.09399057636378706,-0.01514996211517849
1.17011701170117,0.0009099323642538113,0.11388222711035068,-0.013094966967689532
1.1711171117111712,0.000852528064165016,0.07214771074866075,-0.011625400849113305
1.1721172117211722,0.0007983014783159566,0.21818564237922417,-0.010851127529092142
1.173117311731173,0.000747108813470232,0.17458181039264659,-0.010800236914803616
1.1741174117411741,0.0006988105660886182,0.008507087276166801,-0.011418558769738118
1.1751175117511752,0.0006532715471880338,-0.052205551849954374,-0.012582066445214318
1.176117611761176,0.0006103608940089145,-0.032028128408841866,-0.01412006445746087
1.177117711771177,0.0005699520693060482,-0.07984068168305208,-0.015845167847499876
1.1781178117811781,0.0005319228490715619,-0.18085565256472738,-0.01758506990650442
1.1791179117911792,0.0004961552994890676,-0.09753058484570373,-0.019211012482552258
1.18011801180118,0.00046253574390609284,-0.15774274678227335,-0.020658529648500214
1.181118111811181,0.0004309547205968584,-0.15218190748009483,-0.021937255704776105
1.1821182118211822,0.0004013069320705888,-0.10456402592258567,-0.023128220509938614
1.1831183118311832,0.0003734911866610502,-0.07167033878651027,-0.024368911843894822
1.184118411841184,0.0003474103331122045,0.08132837653274794,-0.025828261054827745
1.185118511851185,0.00032297118885199407,0.12897851862319398,-0.027675344739985345
1.1861186118611862,0.00030008446262233133,-0.014656870787545795,-0.030046633255879057
1.1871187118711872,0.00027866467210787394,0.06518660960663014,-0.03301675210115535
1.188118811881188,0.0002586300571800936,0.020351714007256404,-0.03657698018768921
1.1891189118911891,0.00023990248934590135,0.017475364251491383,-0.04062447745675518
1.1901190119011902,0.00022240737796257867,0.0996745248816001,-0.044963930873966516
1.191119111911191,0.0002060735737524661,0.048370272626192506,-0.04932207520745311
1.192119211921192,0.00019083327012263732,-0.017913215612545448,-0.05337428679063406
1.1931193119311931,0.0001766219027662813,0.005759884274252154,-0.056781056011436286
1.1941194119411942,0.00016337804799397294,-0.04287854586256965,-0.0592306682702769
1.195119511951195,0.00015104332021487793,-0.21083581346483837,-0.0604830715408994
1.196119611961196,0.00013956226895984653,-0.300371942138182,-0.06040893291273279
1.1971197119711972,0.00012888227581087848,-0.2911371039053509,-0.059017570693544234
1.1981198119811982,0.00011895345157426757,-0.3673192561543361,-0.05646814537270352
1.199119911991199,0.00010972853400838424,-0.2435450833266711,-0.05306044470895316
1.2001200120012,0.00010116278639119556,-0.1529371373626311,-0.04920468294780909
1.2011201120112012,9.321389718766455e-05,0.07217031837142508,-0.04537344182993074
1.2021202120212022,8.584188105288932e-05,0.2765689850231857,-0.042042447296297476
1.203120312031203,7.900898138358246e-05,0.23334970572034064,-0.03962940612185456
1.2041204120412041,7.267957460800882e-05,0.27011092223916433,-0.038440822957940775
1.2051205120512052,6.682007638308114e-05,0.0662725887669027,-0.038635263550250945
1.206120612061206,6.13988498467572e-05,0.12020623280021443,-0.040208346666502
1.207120712071207,5.638611605444313e-05,0.012090244736666094,-0.0430008047858298
1.2081208120812081,5.1753866709607164e-05,-0.12286327404631864,-0.04672723181293882
1.2091209120912092,4.747577928132429e-05,-0.13941438329476766,-0.05102023252145687
1.21012101210121,4.352713458506671e-05,-0.21121502269658937,-0.05548285030258671
1.211121112111211,3.988473688760524e-05,-0.2831065745749002,-0.059741480965234024
1.2121212121212122,3.652683658249227e-05,-0.1677272644168558,-0.06349198674588963
1.2131213121312132,3.34330554691465e-05,-0.1872443928032679,-0.066533245872831
1.214121412141214,3.058431465614036e-05,-0.1661959377753711,-0.0687845702682596
1.215121512151215,2.7962765097778522e-05,-0.19807623988510237,-0.07028585717961362
1.2161216121612162,2.5551720762505835e-05,-0.022916517979164653,-0.07118163753709839
1.2171217121712172,2.3335594421999896e-05,-0.002942617636779707,-0.0716921593266888
1.218121812181218,2.1299836041029237e-05,0.07312611644614109,-0.07207617189219245
1.2191219121912191,1.9430873740188703e-05,0.029381184038633767,-0.07259091687592548
1.2201220122012202,1.7716057296484046e-05,0.0325306818891007,-0.07345474962678311
1.221122112211221,1.6143604140340342e-05,-0.007609574864867568,-0.07481684584339861
1.222122212221222,1.4702547801971422e-05,-0.1020843172749993,-0.07673692794771501
1.2231223122312231,1.338268875509093e-05,-0.06519173509435941,-0.07917631872101041
1.2241224122412242,1.21745476016393e-05,-0.03939518388784802,-0.08200026738209214
1.225122512251225,1.1069320537536541e-05,-0.089719319420523,-0.0849905829527363
1.226122612261226,1.0058837036366598e-05,-0.029993413136963087,-0.08786709638597916
1.2271227122712272,9.135519685358431e-06,-0.025637642171745596,-0.09031613741440918
1.2281228122812282,8.292346105978653e-06,0.0025585011098520904,-0.0920238444601939
1.229122912291229,7.522812889890089e-06,-0.18602297772131896,-0.09271160530361676
1.2301230123012301,6.820901479892412e-06,-0.23328473881634004,-0.09217024842573882
1.2311231123112312,6.181045924735637e-06,-0.2176157216972377,-0.09028899397592875
1.2321232123212322,5.5981024363287205e-06,-0.21709243431375547,-0.0870750732405466
1.233123312331233,5.067320677846335e-06,-0.18100050987118627,-0.08266067614682006
1.2341234123412341,4.584316711510654e-06,-0.21345464739316083,-0.07729541551742605
1.2351235123512352,4.145047535383789e-06,-0.11753199601154282,-0.0713244283613135
1.236123612361236,3.7457871393022203e-06,0.06418243886184441,-0.06515420613262783
1.237123712371237,3.3831040111087456e-06,-0.12336548956139258,-0.059209990877586376
1.2381238123812381,3.053840025550931e-06,0.02099175258759544,-0.05388982245348211
1.2391239123912392,2.755090649595793e-06,0.037056340738013865,-0.04952088300753935
1.24012401240124,2.484186399444369e-06,0.13176305097349977,-0.046323712806536486
1.241124112411241,2.23867548618231e-06,0.23787036707447762,-0.0443893139603654
1.2421242124212422,2.0163075887653325e-06,0.1548362056392405,-0.043673052186257375
1.2431243124312432,1.8150186948833175e-06,0.07450757708805132,-0.04400738371266591
1.244124412441244,1.6329169521654509e-06,0.062012081980907185,-0.04513274579515769
1.2451245124512451,1.4682694741571551e-06,-0.08291693573122713,-0.04674283912311476
1.2461246124612462,1.3194900475093385e-06,-0.2835350406205154,-0.04853763928962511
1.2471247124712472,1.185127688853129e-06,-0.38001163206156585,-0.05027542434729353
1.248124812481248,1.0638560018819382e-06,-0.4751055165338331,-0.05181442665198309
1.2491249124912491,9.544632872108655e-07,-0.41606433998390047,-0.05313585142807737
1.2501250125012502,8.55843359625987e-07,-0.20766379466415782,-0.05434309891883043
1.251125112511251,7.66987029360005e-07,0.011583583077933321,-0.05563665239494312
1.252125212521252,6.869742060319222e-07,0.19193031680927006,-0.057269198665556964
1.2531253125312531,6.14966585857079e-07,0.14017147459369744,-0.059489749187477556
1.2541254125412542,5.502008846647147e-07,0.25204710989542434,-0.06248767882011985
1.255125512551255,4.919825811493093e-07,0.3094363057243851,-0.06634729574390562
1.256125612561256,4.396801366226274e-07,0.13095140491690535,-0.07102116987653742
1.2571257125712572,3.927196593238142e-07,0.02036709426561782,-0.07632668003712526
1.2581258125812582,3.505799830803502e-07,-0.1560870073072094,-0.0819658316971864
1.259125912591259,3.1278813179230274e-07,-0.22027280232474508,-0.08756418962478243
1.2601260126012601,2.789151428326478e-07,-0.28067484057694675,-0.09272166088092354
1.2611261126112612,2.4857222401725277e-07,-0.27048326352616336,-0.09706645122666634
1.2621262126212622,2.2140722029748713e-07,-0.17599314073402345,-0.10030383942287996
1.263126312631263,1.9710136776683742e-07,-0.2928692486706331,-0.10225303033924411
1.2641264126412641,1.7536631394922285e-07,-0.2983428630428872,-0.10286763371636386
1.2651265126512652,1.559413846518971e-07,-0.1423141093258498,-0.10223778409257869
1.266126612661266,1.3859107891975278e-07,-0.05910730645797335,-0.10057437171444046
1.267126712671267,1.2310277482186645e-07,-0.10140821264107135,-0.09817817745473506
1.2681268126812681,1.0928462993579429e-07,0.03850904441623565,-0.09539858773617106
1.2691269126912692,9.696366147166678e-08,-0.07738048051789977,-0.09258763903233255
1.27012701270127,8.598399199828094e-08,0.014614698816690912,-0.09005531151527463
1.271127112711271,7.620524769812644e-08,-0.035708687139349375,-0.08803147027679412
1.2721272127212722,6.750109698970806e-08,0.13206390738478285,-0.08663892769918663
1.2731273127312732,5.975791821496204e-08,-0.0009724302831620249,-0.08588093773936083
1.274127412741274,5.2873585899206925e-08,0.02520575021561522,-0.08564501956985908
1.2751275127512751,4.675636585241335e-08,0.06586927352191672,-0.08572327725057627
1.2761276127612762,4.132391009581723e-08,-0.013106482099310436,-0.08584739908461765
1.2771277127712772,3.6502343268715814e-08,-0.08137934352821322,-0.08573447389540462
1.278127812781278,3.222543279884839e-08,-0.21643987451105595,-0.0851378419449088
1.2791279127912791,2.8433835707792677e-08,-0.31378920282569606,-0.08389564696791217
1.2801280128012802,2.5074415472394298e-08,-0.4096864963549526,-0.0819689784499302
1.281128112811281,2.2099622876151106e-08,-0.5612329013663073,-0.07946196673896908
1.282128212821282,1.9466935262697085e-08,-0.3783386391128134,-0.0766182559461735
1.2831283128312831,1.713834904880507e-08,-0.10722046629486612,-0.07379196925176462
1.2841284128412842,1.50799207684645e-08,0.045435400749849114,-0.07139614385688862
1.285128512851285,1.326135230438333e-08,0.1955781010391195,-0.06983655526188223
1.286128612861286,1.1655616320312742e-08,0.3294814744276028,-0.06944243938445037
1.2871287128712872,1.0238618238605327e-08,0.361807655096453,-0.07040678735492574
1.2881288128812882,8.988891413900847e-09,0.25692401456674563,-0.07274736363081136
1.289128912891289,7.887322437359012e-09,0.13338688208043406,-0.07629579814125084
1.2901290129012901,6.916903767814566e-09,-0.09211934647237728,-0.08071687534926637
1.2911291129112912,6.062511128050844e-09,-0.14016845248228316,-0.08555462185910087
1.2921292129212922,5.310703327353731e-09,-0.3813099690916797,-0.09029716347842805
1.293129312931293,4.649542376916167e-09,-0.3155260657586577,-0.09444946963815587
1.2941294129412941,4.0684319536735215e-09,-0.33662203080928566,-0.09760240137992546
1.2951295129512952,3.5579724419241325e-09,-0.3610509621116982,-0.09948778826084916
1.296129612961296,3.1098309416785325e-09,-0.27516276036202414,-0.10001205418997634
1.297129712971297,2.716624779118209e-09,-0.2423600286879244,-0.09926450826779706
1.2981298129812981,2.3718171887719857e-09,-0.1094169472058585,-0.09750020611746177
1.2991299129912992,2.0696239599388192e-09,-0.02702938159787982,-0.09510079722353766
1.3001300130013,1.8049299523528585e-09,0.024658489164229958,-0.09251958556029011
1.301130113011301,1.573214488882845e-09,0.081613043620765,-0.09021877797737543
1.3021302130213022,1.3704847269364123e-09,0.01569049350894068,-0.08860738206055502
1.3031303130313032,1.1932161958876139e-09,0.07679374988036997,-0.08798751456171333
1.304130413041304,1.0382997659223303e-09,0.0547829363426948,-0.08851530094493175
1.3051305130513051,9.0299438479693e-10,-0.04769959602711245,-0.09018047720796774
1.3061306130613062,7.848849837036211e-10,0.0315506121596484,-0.09280657097260829
1.3071307130713072,6.818450122493817e-10,-0.006579724189423578,-0.09607136634263469
1.308130813081308,5.920031159775837e-10,-0.03839808234997402,-0.09954539093638119
1.3091309130913091,5.137135183393321e-10,-0.0792197635229521,-0.10274443793474439
1.3101310131013102,4.4552971297835966e-10,-0.16529951319239822,-0.10519061996773799
1.311131113111311,3.8618111201313374e-10,-0.2558026437536535,-0.10647520736578239
1.312131213121312,3.345523320435112e-10,-0.23971378337256616,-0.1063157532058929
1.3131313131313131,2.8966483220565024e-10,-0.3409701244947338,-0.10460002293992078
1.3141314131413142,2.506606480526333e-10,-0.5023135848552954,-0.10141020172375341
1.315131513151315,2.1678799163125466e-10,-0.32934762026948544,-0.09702280575254624
1.316131613161316,1.8738851211382008e-10,-0.18540840631790845,-0.09188267854751557
1.3171317131713172,1.6188603296594983e-10,-0.027606318920368286,-0.086553234959846
1.3181318131813182,1.3977660110364943e-10,0.088850769487059,-0.0816490905922991
1.319131913191319,1.206197010155648e-10,0.14797418550382366,-0.07776036341343641
1.3201320132013201,1.0403050258071785e-10,0.1811281567261461,-0.07537940486220779
1.3211321132113212,8.967302546590723e-11,0.24874839032135426,-0.074840251700902
1.3221322132213222,7.725411569193627e-11,0.07814170286986147,-0.07627895412133831
1.323132313231323,6.651814135368399e-11,0.0008069789097107372,-0.07961964287049215
1.3241324132413241,5.7242324691956355e-11,0.03589902328992138,-0.08458737367781759
1.3251325132513252,4.923263686085699e-11,-0.12142237731229034,-0.09074511622899335
1.326132613261326,4.232018991792716e-11,-0.17562851343243613,-0.09754929413023963
1.327132713271327,3.635806788115145e-11,-0.2826587394101034,-0.10441629076862886
1.3281328132813282,3.121854523359767e-11,-0.17789916264516006,-0.1107913817727029
1.3291329132913292,2.67906470916447e-11,-0.2932368010937206,-0.11621166287372632
1.33013301330133,2.2978010457717018e-11,-0.3500912499703055,-0.12035561350404325
1.331133113311331,1.9697010617559752e-11,-0.29160859689992424,-0.1230737129108499
1.3321332133213322,1.6875120873765697e-11,-0.27374810337229977,-0.12439678519233216
1.3331333133313332,1.4449477484093094e-11,-0.19025846923416218,-0.12452138596504
1.334133413341334,1.2365624942757229e-11,-0.14193524551995046,-0.12377436786840522
1.3351335133513351,1.0576419648120009e-11,-0.07500774689327405,-0.12256139814675253
1.3361336133613362,9.041072579753787e-12,-0.01452916592453761,-0.12130624562703513
1.3371337133713372,7.724313896458102e-12,0.0844333124807864,-0.12038884316910477
1.338133813381338,6.595664395776561e-12,0.05181135172009295,-0.12009034243318356
1.3391339133913391,5.628800572967994e-12,0.06398338768264605,-0.1205525746023721
1.3401340134013402,4.801001608492047e-12,0.08357318668090444,-0.12175758452770313
1.341134113411341,4.092668020476514e-12,0.06824908561184004,-0.12353043650731793
1.342134213421342,3.4869029626533844e-12,0.012006540300783113,-0.125565596103273
1.3431343134313432,2.9691482470120527e-12,-0.02545408985094383,-0.12747412724215612
1.3441344134413442,2.5268681401700003e-12,-0.19157508976623028,-0.12884592026112568
1.345134513451345,2.149274837735897e-12,-0.3738936374422447,-0.12931847552876274
1.346134613461346,1.82709027467393e-12,-0.5158464139087015,-0.1286418614256665
1.3471347134713472,1.552339593460905e-12,-0.49349292339617024,-0.12672893243670508
1.3481348134813482,1.3181721759524143e-12,-0.5842383286587386,-0.12368125657704969
1.349134913491349,1.118706658538001e-12,-0.45492818832487136,-0.11978460416462147
1.3501350135013501,9.488968015311564e-13,-0.12551272526524543,-0.11547289211291571
1.3511351135113512,8.044154800826898e-13,0.07787745007229835,-0.11126529477094374
1.3521352135213522,6.815544116768877e-13,0.21084173708552678,-0.10768660711498725
1.353135313531353,5.771375402078007e-13,0.32624914405590827,-0.10518452356564321
1.3541354135413541,4.884462638156525e-13,0.27877679315931037,-0.10405829635482251
1.3551355135513552,4.131549276027512e-13,0.2596037141589491,-0.10441112349609184
1.356135613561356,3.492752070307443e-13,0.1029409294109894,-0.1061342399171863
1.357135713571357,2.951081867609866e-13,0.012064630249439844,-0.10892508434325043
1.3581358135813582,2.4920309605682534e-13,-0.19046125044402767,-0.11233617303609923
1.3591359135913592,2.103217983789938e-13,-0.2967545955099789,-0.11584637970445612
1.36013601360136,1.7740825190873534e-13,-0.4304636022159462,-0.11894292576513603
1.361136113611361,1.4956226157302852e-13,-0.4487085073252662,-0.1212009837184852
1.3621362136213622,1.2601693361601188e-13,-0.4025894017916407,-0.122348529288263
1.3631363136313632,1.0611932252584355e-13,-0.42183448391372624,-0.12230672274080644
1.364136413641364,8.931382865378515e-14,-0.2825742505252265,-0.12120010171275387
1.3651365136513651,7.512796444052404e-14,-0.2976840787716427,-0.11933550531926251
1.3661366136613662,6.316015892703224e-14,-0.10094706914173056,-0.11715324901231305
1.3671367136713672,5.306931516702835e-14,0.09073193241013501,-0.11515810441681991
1.368136813681368,4.456587414816432e-14,0.1952956661836122,-0.11384064993582503
1.3691369136913691,3.740417263318119e-14,0.2148044372561509,-0.11360105012865883
1.3701370137013702,3.137591162031721e-14,0.1644285157111029,-0.11468686493171328
1.371137113711371,2.6304577479843757e-14,0.1229380328651376,-0.11715404323327046
1.372137213721372,2.2040679763291068e-14,-0.014368857624871476,-0.1208563457997397
1.3731373137313732,1.8457688651206237e-14,-0.047091285190523254,-0.12546394718213372
1.3741374137413742,1.5448571395171024e-14,-0.20722843164493535,-0.13050773517417266
1.375137513751375,1.2922841261367815e-14,-0.20585500235827403,-0.13544246718344036
1.376137613761376,1.0804044693492544e-14,-0.2943412535830019,-0.13971979094645798
1.3771377137713772,9.027622941406142e-15,-0.3044012642784575,-0.14286128938825027
1.3781378137813782,7.539093474021478e-15,-0.4075880814730968,-0.1445220745055979
1.379137913791379,6.29250430679575e-15,-0.3204562730314989,-0.14453684341878487
1.3801380138013801,5.249121096272219e-15,-0.374552551237234,-0.1429425303441811
1.3811381138113812,4.3763126345621016e-15,-0.30474482593883717,-0.13997455210244658
1.3821382138213822,3.6466053439922645e-15,-0.26684914816038086,-0.13603690220997378
1.383138313831383,3.0368816378907925e-15,-0.1351623467221414,-0.13164969000489005
1.3841384138413841,2.527700674248962e-15,0.02579148190752906,-0.12738081171740018
1.3851385138513852,2.1027231684887447e-15,0.16646469311267809,-0.12377087972274532
1.386138613861386,1.7482246221878753e-15,0.14256892096382817,-0.12126182461441772
1.387138713871387,1.4526836290175831e-15,0.16337343856918335,-0.12013926787369049
1.3881388138813882,1.2064338914385157e-15,0.05898015424884473,-0.12049672597952368
1.3891389138913892,1.0013702686188668e-15,-0.08359891542183236,-0.12222634843368675
1.39013901390139,8.307006179214822e-16,0.04814099841444487,-0.125036984779154
1.3911391139113911,6.88736423915341e-16,-0.04985743696391119,-0.12849670638092553
1.3921392139213922,5.707162601772797e-16,-0.22525025777846772,-0.13209393447902784
1.3931393139313932,4.726570259537424e-16,-0.3091021025583183,-0.1353091156444958
1.394139413941394,3.9122866425557464e-16,-0.36492290087414364,-0.13768745731452559
1.3951395139513951,3.236487192439053e-16,-0.3758228750144132,-0.13890285557317367
1.3961396139613962,2.675936452351684e-16,-0.4121825423052101,-0.13880412318918578
1.3971397139713972,2.2112425138643685e-16,-0.3928539905963652,-0.13743693250275482
1.398139813981398,1.8262306720242218e-16,-0.3286587187197036,-0.13503817036933935
1.3991399139913991,1.5074175478784324e-16,-0.20699492656242952,-0.13200322489842872
1.4001400140014002,1.2435698313026682e-16,-0.029661605579644142,-0.12883064669569347
1.401140114011401,1.0253342523531959e-16,0.06274184766004509,-0.12605211557649534
1.402140214021402,8.449274715022512e-17,0.29434389586033116,-0.12415805215773652
1.4031403140314032,6.958763436009146e-17,0.20072015388068387,-0.12352993739880533
1.4041404140414042,5.728005047274856e-17,0.06053405487448412,-0.12438910101190334
1.405140514051405,4.712304957683722e-17,-0.1246220958462669,-0.1267685700799199
1.4061406140614061,3.874557062250192e-17,-0.10821532213658444,-0.13051033809097815
1.4071407140714072,3.183973258391571e-17,-0.2035093098926087,-0.1352863496603234
1.4081408140814082,2.615022553021146e-17,-0.17727873695936805,-0.14063860357168162
1.409140914091409,2.14654571955832e-17,-0.16367975983988403,-0.14603233997682113
1.4101410141014101,1.7610169020202867e-17,-0.13231943289151826,-0.1509159595921421
1.4111411141114112,1.443928147880522e-17,-0.14112835258755574,-0.15478158524803254
1.4121412141214122,1.1832767137934133e-17,-0.287518035433859,-0.15722056844406154
1.413141314131413,9.691382402423171e-18,-0.368161320624445,-0.1579685579022748
1.4141414141414141,7.933116273720114e-18,-0.3971174821515861,-0.1569351390072649
1.4151415141514152,6.490237450371909e-18,-0.42013926650709854,-0.1542139759585728
1.416141614161416,5.30684043478903e-18,-0.32551476664703327,-0.15007125746336852
1.417141714171417,4.3368075465470645e-18,-0.10740601475103824,-0.14491308537800568
1.4181418141814182,3.542117368460983e-18,0.028348675166630755,-0.13923578259326017
1.4191419141914192,2.8914415797805336e-18,0.11740498659171414,-0.13356609093109542
1.42014201420142,2.358981709471541e-18,0.021851495633502374,-0.12839996564276437
1.4211421142114211,1.923505365821503e-18,0.026729773101469567,-0.12414860901375499
1.4221422142214222,1.5675482148123565e-18,0.15068701305994528,-0.12109868008437949
1.4231423142314232,1.2767535981534115e-18,-0.06116564043613888,-0.11939094460683258
1.424142414241424,1.0393263790092555e-18,-0.11135328159211927,-0.11901865048613182
1.4251425142514251,8.455815278424552e-19,-0.19628068755015546,-0.11984404571125924
1.4261426142614262,6.875712374707166e-19,-0.16742015127795382,-0.12162907675451272
1.4271427142714272,5.587770905650225e-19,-0.2224926780701935,-0.12407482656516505
1.428142814281428,4.538560827788153e-19,-0.20442069308011146,-0.12686384021288524
1.4291429142914291,3.684312047249922e-19,-0.21498061154007614,-0.12969993976992591
1.4301430143014302,2.989188684195839e-19,-0.23964744741649308,-0.13234110344993685
1.431143114311431,2.4238678084541836e-19,-0.22277085055957502,-0.13462222637722307
1.432143214321432,1.9643696276580397e-19,-0.1945569680060405,-0.136465966598985
1.4331433143314332,1.5910952152964599e-19,-0.20294556818811743,-0.13788134069165178
1.4341434143414342,1.2880354307341472e-19,-0.07193482937383744,-0.13895118041891483
1.435143514351435,1.042120963397295e-19,-0.07692357799716662,-0.1398108438441963
1.4361436143614361,8.426886437717438e-20,-0.05378715417729567,-0.14062147884689613
1.4371437143714372,6.810434840975714e-20,-0.18491696496443433,-0.14154146486560976
1.4381438143814382,5.500994914989524e-20,-0.1852773629096311,-0.14269938806140756
1.439143914391439,4.440852607795608e-20,-0.15026858752552197,-0.14417131596778213
1.4401440144014401,3.583028074705748e-20,0.051282838604996425,-0.1459646560311103
1.4411441144114412,2.8893013079672785e-20,-0.02772912735571976,-0.1480106747672865
1.4421442144214422,2.3285967334175404e-20,-0.003565157421150997,-0.1501675024188832
1.443144314431443,1.8756622953252727e-20,-0.023374946506080484,-0.15223464055802613
1.4441444144414441,1.509989986627503e-20,-0.1259001801808914,-0.15397843886878684
1.4451445144514452,1.2149342163521818e-20,-0.16457455967466583,-0.15516600005605244
1.446144614461446,9.76992184556616e-21,-0.2318463503087985,-0.1556030075838432
1.447144714471447,7.852168442961375e-21,-0.4367785126444796,-0.15516950575371383
1.4481448144814482,6.307383077342777e-21,-0.497929771512294,-0.1538470656635878
1.4491449144914492,5.0637389660371725e-21,-0.49419737853718415,-0.15173138261350588
1.45014501450145,4.063106090870545e-21,-0.24627761524784259,-0.14902643550973452
1.4511451145114511,3.2584671094758536e-21,0.001833630033849079,-0.146019801510387
1.4521452145214522,2.6118157021059957e-21,0.012539672691217234,-0.14304277997333384
1.4531453145314532,2.0924483430572944e-21,0.007889193994304447,-0.14042233080764768
1.454145414541454,1.675576727065116e-21,0.07203129732659598,-0.1384333837318743
1.4551455145514551,1.341201398037637e-21,0.09106005988364223,-0.13725961711680984
1.4561456145614562,1.073198040692025e-21,-0.010396173971004986,-0.13696889047229374
1.4571457145714573,8.585768342519877e-22,-0.042931821250303114,-0.1375068290769734
1.458145814581458,6.868825851866819e-22,-0.09600504778433075,-0.13870910064914183
1.4591459145914591,5.497093445315487e-22,-0.19317359026340908,-0.14033011264039963
1.4601460146014602,4.4030811473958e-22,-0.17663797577132156,-0.1420835938001714
1.461146114611461,3.5327025896192023e-22,-0.1927046085183279,-0.14368906283900998
1.462146214621462,2.8427250493181443e-22,-0.3188229113087157,-0.14491757895575808
1.4631463146314632,2.2987212027320784e-22,-0.24415001862391703,-0.14563031273335175
1.4641464146414642,1.8734303654904412e-22,-0.4051077673650215,-0.1458042517913772
1.465146514651465,1.5454550686161143e-22,-0.3755470333175561,-0.1455407315272872
1.4661466146614661,1.298233717065884e-22,-0.25595988476037734,-0.14505449184106753
1.4671467146714672,1.119242426441238e-22,-0.20633619356186278,-0.14464357150036505
1.4681468146814682,9.993894542095186e-23,-0.13665186329451418,-0.14464329915124333
1.469146914691469,9.325743743601993e-23,0.01434212258661708,-0.14537039914835562
1.4701470147014701,9.153916636740948e-23,0.016122017363597484,-0.14706521901969033
1.4711471147114712,9.469649986963096e-23,0.10853379533113224,-0.14984090655112073
1.4721472147214723,1.0289045934727295e-22,0.0718996714634514,-0.153647864624252
1.473147314731473,1.1653856027740258e-22,0.08867507626585508,-0.15826004705662794
1.4741474147414741,1.3633512236350396e-22,0.10466412090010797,-0.16328686842874757
1.4751475147514752,1.6328498957607604e-22,-0.034893622684759325,-0.16821102906830995
1.476147614761476,1.9875221815062085e-22,-0.1625923800667502,-0.17244876027223233
1.477147714771477,2.4452597686205715e-22,-0.3294927307708041,-0.1754252792517297
1.4781478147814782,3.0290668818572368e-22,-0.5042359480920913,-0.17665517421455235
1.4791479147914792,3.768163551424954e-22,-0.5083368540960944,-0.17581571453685144
1.48014801480148,4.699381059818294e-22,-0.6002775498655524,-0.17280127741932136
1.4811481148114811,5.868912936662299e-22,-0.58179406830891,-0.16774939163627056
1.4821482148214822,7.334500645335267e-22,-0.33635951334710473,-0.1610330522773629
1.4831483148314832,9.168152267486636e-22,-0.21452430452054258,-0.15321932622341755
1.484148414841484,1.145951584118084e-21,0.03852255205235263,-0.14499993385729337
1.4851485148514851,1.432005751267677e-21,0.16702490744708648,-0.1371043427151196
1.4861486148614862,1.788822949424289e-21,0.2617732731760874,-0.1302088853378561
1.4871487148714873,2.233585540615983e-21,0.2216561506005416,-0.1248558793378227
1.488148814881488,2.7876012652020736e-21,0.19485971952509903,-0.12139466100489271
1.4891489148914892,3.477275513782553e-21,0.13868561867277626,-0.11995239110010071
